# d(e,e'p)n Central Kinematics Summary
# Beam Energy (Ei) = 11.000 GeV
# 4-Momentum Transfer (Q2) = 2.00 - 3.90 GeV (step: 0.10) 
# x-Bjorken (xbj) = 1.00 - 2.10 (step: 0.10) 
# Missing Momentum (Pr) = 0.20 - 0.61 GeV (step: 0.01) 
# Hadron Out-of-Plane Angle (phi): rotation axis is q-vector 
# thp = thq - thpq, phi = 180  (q-vector scatters at smaller  angles than proton scattering angle)# 
# # 
# Tensor Polarized Deuterium: d(e,e'p) kinematics :
# 
# Header Definitions: 
# Pr   : Central Missing Momentum [GeV/c] 
# xbj  : Bjorken x  
# kf   : e- final momentum [GeV/c] 
# th_e : e- scattering angle [deg] 
# Pf   : final proton momentum [GeV/c] 
# th_p : proton scattering angle [deg] 
# q    : 3-momentum transfer [GeV] 
# th_q : relative angle between q-vector and +z (lab)  [deg] 
# th_nq: relative angle between q-vector and recoil neutron [deg] 
# th_pq: relative angle between q-vector and knocked-out proton [deg] 
# Q2   : 4-Momentum Transfer [GeV^2]  
# 
Pr,xbj,kf,th_e,Pf,th_p,q,th_q,th_nq,th_pq,Q2
  0.2000 	 1.2000 	 9.8454 	 8.8865 	 1.8447 	 54.3979 	 1.9832 	 50.0752 	 44.0439 	 4.3227 	 2.6000
  0.2000 	 1.3000 	 9.9342 	 8.8466 	 1.7445 	 54.3216 	 1.9328 	 52.2257 	 18.6018 	 2.0959 	 2.6000
  0.2000 	 1.2000 	 9.8010 	 9.0767 	 1.8944 	 53.6519 	 2.0341 	 49.4746 	 43.6274 	 4.1773 	 2.7000
  0.2000 	 1.3000 	 9.8932 	 9.0342 	 1.7909 	 53.5136 	 1.9812 	 51.6398 	 17.0245 	 1.8737 	 2.7000
  0.2000 	 1.2000 	 9.7566 	 9.2647 	 1.9438 	 52.9315 	 2.0847 	 48.8911 	 43.2196 	 4.0404 	 2.8000
  0.2000 	 1.3000 	 9.8522 	 9.2195 	 1.8370 	 52.7210 	 2.0291 	 51.0701 	 15.3444 	 1.6509 	 2.8000
  0.2000 	 1.2000 	 9.7122 	 9.4506 	 1.9930 	 52.2349 	 2.1351 	 48.3238 	 42.8202 	 3.9111 	 2.9000
  0.2000 	 1.3000 	 9.8112 	 9.4027 	 1.8829 	 51.9384 	 2.0768 	 50.5155 	 13.5200 	 1.4229 	 2.9000
  0.2000 	 1.2000 	 9.6678 	 9.6346 	 2.0420 	 51.5608 	 2.1851 	 47.7719 	 42.4291 	 3.7889 	 3.0000
  0.2000 	 1.3000 	 9.7702 	 9.5839 	 1.9286 	 51.1579 	 2.1242 	 49.9754 	 11.4793 	 1.1826 	 3.0000
  0.2000 	 1.2000 	 9.6234 	 9.8169 	 2.0908 	 50.9077 	 2.2350 	 47.2345 	 42.0459 	 3.6732 	 3.1000
  0.2000 	 1.3000 	 9.7293 	 9.7632 	 1.9741 	 50.3643 	 2.1714 	 49.4489 	 9.0735 	 0.9154 	 3.1000
  0.2000 	 1.2000 	 9.5789 	 9.9975 	 2.1393 	 50.2743 	 2.2846 	 46.7108 	 41.6704 	 3.5635 	 3.2000
  0.2000 	 1.3000 	 9.6883 	 9.9408 	 2.0194 	 49.5151 	 2.2183 	 48.9354 	 5.8633 	 0.5797 	 3.2000
  0.2000 	 1.2000 	 9.5345 	 10.1766 	 2.1877 	 49.6594 	 2.3340 	 46.2002 	 41.3024 	 3.4593 	 3.3000
  0.2000 	 1.2000 	 9.4901 	 10.3543 	 2.2360 	 49.0622 	 2.3832 	 45.7020 	 40.9417 	 3.3602 	 3.4000
  0.2000 	 1.2000 	 9.4457 	 10.5306 	 2.2841 	 48.4815 	 2.4322 	 45.2156 	 40.5881 	 3.2659 	 3.5000
  0.2000 	 1.2000 	 9.4013 	 10.7057 	 2.3320 	 47.9165 	 2.4811 	 44.7405 	 40.2412 	 3.1760 	 3.6000
  0.2000 	 1.2000 	 9.3569 	 10.8796 	 2.3798 	 47.3665 	 2.5298 	 44.2762 	 39.9009 	 3.0902 	 3.7000
  0.2000 	 1.2000 	 9.3125 	 11.0524 	 2.4275 	 46.8305 	 2.5783 	 43.8222 	 39.5671 	 3.0083 	 3.8000
  0.2000 	 1.2000 	 9.2681 	 11.2243 	 2.4750 	 46.3080 	 2.6267 	 43.3780 	 39.2394 	 2.9300 	 3.9000
  0.2100 	 1.3000 	 9.9342 	 8.8466 	 1.7420 	 54.9647 	 1.9328 	 52.2257 	 23.3538 	 2.7390 	 2.6000
  0.2100 	 1.3000 	 9.8932 	 9.0342 	 1.7885 	 54.1817 	 1.9812 	 51.6398 	 22.1913 	 2.5418 	 2.7000
  0.2100 	 1.2000 	 9.7566 	 9.2647 	 1.9414 	 53.2645 	 2.0847 	 48.8911 	 44.8285 	 4.3734 	 2.8000
  0.2100 	 1.3000 	 9.8522 	 9.2195 	 1.8346 	 53.4214 	 2.0291 	 51.0701 	 21.0039 	 2.3514 	 2.8000
  0.2100 	 1.2000 	 9.7122 	 9.4506 	 1.9907 	 52.5621 	 2.1351 	 48.3238 	 44.4713 	 4.2382 	 2.9000
  0.2100 	 1.3000 	 9.8112 	 9.4027 	 1.8806 	 52.6818 	 2.0768 	 50.5155 	 19.7855 	 2.1663 	 2.9000
  0.2100 	 1.2000 	 9.6678 	 9.6346 	 2.0396 	 51.8823 	 2.1851 	 47.7719 	 44.1214 	 4.1104 	 3.0000
  0.2100 	 1.3000 	 9.7702 	 9.5839 	 1.9263 	 51.9606 	 2.1242 	 49.9754 	 18.5278 	 1.9853 	 3.0000
  0.2100 	 1.2000 	 9.6234 	 9.8169 	 2.0884 	 51.2238 	 2.2350 	 47.2345 	 43.7787 	 3.9894 	 3.1000
  0.2100 	 1.3000 	 9.7293 	 9.7632 	 1.9718 	 51.2558 	 2.1714 	 49.4489 	 17.2205 	 1.8069 	 3.1000
  0.2100 	 1.2000 	 9.5789 	 9.9975 	 2.1370 	 50.5853 	 2.2846 	 46.7108 	 43.4430 	 3.8746 	 3.2000
  0.2100 	 1.3000 	 9.6883 	 9.9408 	 2.0171 	 50.5647 	 2.2183 	 48.9354 	 15.8492 	 1.6293 	 3.2000
  0.2100 	 1.2000 	 9.5345 	 10.1766 	 2.1854 	 49.9657 	 2.3340 	 46.2002 	 43.1141 	 3.7655 	 3.3000
  0.2100 	 1.3000 	 9.6473 	 10.1169 	 2.0622 	 49.8847 	 2.2649 	 48.4342 	 14.3935 	 1.4505 	 3.3000
  0.2100 	 1.2000 	 9.4901 	 10.3543 	 2.2337 	 49.3639 	 2.3832 	 45.7020 	 42.7919 	 3.6619 	 3.4000
  0.2100 	 1.3000 	 9.6063 	 10.2913 	 2.1071 	 49.2121 	 2.3114 	 47.9447 	 12.8226 	 1.2674 	 3.4000
  0.2100 	 1.2000 	 9.4457 	 10.5306 	 2.2818 	 48.7788 	 2.4322 	 45.2156 	 42.4761 	 3.5632 	 3.5000
  0.2100 	 1.3000 	 9.5653 	 10.4644 	 2.1519 	 48.5416 	 2.3576 	 47.4665 	 11.0851 	 1.0751 	 3.5000
  0.2100 	 1.2000 	 9.4013 	 10.7057 	 2.3297 	 48.2096 	 2.4811 	 44.7405 	 42.1665 	 3.4691 	 3.6000
  0.2100 	 1.3000 	 9.5243 	 10.6362 	 2.1966 	 47.8637 	 2.4037 	 46.9989 	 9.0832 	 0.8648 	 3.6000
  0.2100 	 1.2000 	 9.3569 	 10.8796 	 2.3775 	 47.6555 	 2.5298 	 44.2762 	 41.8630 	 3.3793 	 3.7000
  0.2100 	 1.3000 	 9.4833 	 10.8067 	 2.2411 	 47.1564 	 2.4496 	 46.5416 	 6.5761 	 0.6149 	 3.7000
  0.2100 	 1.2000 	 9.3125 	 11.0524 	 2.4252 	 47.1157 	 2.5783 	 43.8222 	 41.5654 	 3.2935 	 3.8000
  0.2100 	 1.3000 	 9.4423 	 10.9760 	 2.2855 	 46.3005 	 2.4953 	 46.0939 	 2.2486 	 0.2066 	 3.8000
  0.2100 	 1.2000 	 9.2681 	 11.2243 	 2.4727 	 46.5895 	 2.6267 	 43.3780 	 41.2735 	 3.2115 	 3.9000
  0.2200 	 1.3000 	 9.8932 	 9.0342 	 1.7859 	 54.7308 	 1.9812 	 51.6398 	 25.9595 	 3.0910 	 2.7000
  0.2200 	 1.3000 	 9.8522 	 9.2195 	 1.8321 	 53.9801 	 2.0291 	 51.0701 	 25.0107 	 2.9100 	 2.8000
  0.2200 	 1.3000 	 9.8112 	 9.4027 	 1.8781 	 53.2523 	 2.0768 	 50.5155 	 24.0548 	 2.7368 	 2.9000
  0.2200 	 1.3000 	 9.7702 	 9.5839 	 1.9238 	 52.5458 	 2.1242 	 49.9754 	 23.0895 	 2.5705 	 3.0000
  0.2200 	 1.3000 	 9.7293 	 9.7632 	 1.9693 	 51.8590 	 2.1714 	 49.4489 	 22.1123 	 2.4101 	 3.1000
  0.2200 	 1.2000 	 9.5789 	 9.9975 	 2.1346 	 50.8866 	 2.2846 	 46.7108 	 44.9530 	 4.1759 	 3.2000
  0.2200 	 1.3000 	 9.6883 	 9.9408 	 2.0146 	 51.1905 	 2.2183 	 48.9354 	 21.1203 	 2.2551 	 3.2000
  0.2200 	 1.2000 	 9.5345 	 10.1766 	 2.1830 	 50.2620 	 2.3340 	 46.2002 	 44.6571 	 4.0619 	 3.3000
  0.2200 	 1.3000 	 9.6473 	 10.1169 	 2.0597 	 50.5388 	 2.2649 	 48.4342 	 20.1098 	 2.1046 	 3.3000
  0.2200 	 1.2000 	 9.4901 	 10.3543 	 2.2312 	 49.6554 	 2.3832 	 45.7020 	 44.3672 	 3.9535 	 3.4000
  0.2200 	 1.3000 	 9.6063 	 10.2913 	 2.1047 	 49.9025 	 2.3114 	 47.9447 	 19.0766 	 1.9578 	 3.4000
  0.2200 	 1.2000 	 9.4457 	 10.5306 	 2.2793 	 49.0658 	 2.4322 	 45.2156 	 44.0831 	 3.8502 	 3.5000
  0.2200 	 1.3000 	 9.5653 	 10.4644 	 2.1495 	 49.2804 	 2.3576 	 47.4665 	 18.0156 	 1.8140 	 3.5000
  0.2200 	 1.2000 	 9.4013 	 10.7057 	 2.3273 	 48.4923 	 2.4811 	 44.7405 	 43.8046 	 3.7518 	 3.6000
  0.2200 	 1.3000 	 9.5243 	 10.6362 	 2.1941 	 48.6711 	 2.4037 	 46.9989 	 16.9200 	 1.6722 	 3.6000
  0.2200 	 1.2000 	 9.3569 	 10.8796 	 2.3751 	 47.9340 	 2.5298 	 44.2762 	 43.5317 	 3.6578 	 3.7000
  0.2200 	 1.3000 	 9.4833 	 10.8067 	 2.2387 	 48.0731 	 2.4496 	 46.5416 	 15.7814 	 1.5315 	 3.7000
  0.2200 	 1.2000 	 9.3125 	 11.0524 	 2.4228 	 47.3902 	 2.5783 	 43.8222 	 43.2642 	 3.5680 	 3.8000
  0.2200 	 1.3000 	 9.4423 	 10.9760 	 2.2830 	 47.4847 	 2.4953 	 46.0939 	 14.5882 	 1.3908 	 3.8000
  0.2200 	 1.2000 	 9.2681 	 11.2243 	 2.4704 	 46.8602 	 2.6267 	 43.3780 	 43.0018 	 3.4822 	 3.9000
  0.2200 	 1.3000 	 9.4013 	 11.1442 	 2.3273 	 46.9040 	 2.5408 	 45.6557 	 13.3243 	 1.2483 	 3.9000
  0.2300 	 1.3000 	 9.8522 	 9.2195 	 1.8295 	 54.4676 	 2.0291 	 51.0701 	 28.1259 	 3.3976 	 2.8000
  0.2300 	 1.3000 	 9.8112 	 9.4027 	 1.8755 	 53.7430 	 2.0768 	 50.5155 	 27.3279 	 3.2275 	 2.9000
  0.2300 	 1.3000 	 9.7702 	 9.5839 	 1.9212 	 53.0407 	 2.1242 	 49.9754 	 26.5301 	 3.0653 	 3.0000
  0.2300 	 1.3000 	 9.7293 	 9.7632 	 1.9667 	 52.3592 	 2.1714 	 49.4489 	 25.7314 	 2.9103 	 3.1000
  0.2300 	 1.3000 	 9.6883 	 9.9408 	 2.0120 	 51.6973 	 2.2183 	 48.9354 	 24.9308 	 2.7619 	 3.2000
  0.2300 	 1.3000 	 9.6473 	 10.1169 	 2.0572 	 51.0536 	 2.2649 	 48.4342 	 24.1272 	 2.6194 	 3.3000
  0.2300 	 1.3000 	 9.6063 	 10.2913 	 2.1021 	 50.4271 	 2.3114 	 47.9447 	 23.3192 	 2.4823 	 3.4000
  0.2300 	 1.3000 	 9.5653 	 10.4644 	 2.1469 	 49.8166 	 2.3576 	 47.4665 	 22.5055 	 2.3501 	 3.5000
  0.2300 	 1.3000 	 9.5243 	 10.6362 	 2.1916 	 49.2212 	 2.4037 	 46.9989 	 21.6844 	 2.2223 	 3.6000
  0.2300 	 1.2000 	 9.3569 	 10.8796 	 2.3726 	 48.2042 	 2.5298 	 44.2762 	 44.9636 	 3.9280 	 3.7000
  0.2300 	 1.3000 	 9.4833 	 10.8067 	 2.2361 	 48.6400 	 2.4496 	 46.5416 	 20.8542 	 2.0984 	 3.7000
  0.2300 	 1.2000 	 9.3125 	 11.0524 	 2.4203 	 47.6563 	 2.5783 	 43.8222 	 44.7217 	 3.8342 	 3.8000
  0.2300 	 1.3000 	 9.4423 	 10.9760 	 2.2805 	 48.0719 	 2.4953 	 46.0939 	 20.0128 	 1.9780 	 3.8000
  0.2300 	 1.2000 	 9.2681 	 11.2243 	 2.4679 	 47.1224 	 2.6267 	 43.3780 	 44.4844 	 3.7444 	 3.9000
  0.2300 	 1.3000 	 9.4013 	 11.1442 	 2.3248 	 47.5162 	 2.5408 	 45.6557 	 19.1577 	 1.8606 	 3.9000
  0.2400 	 1.3000 	 9.8522 	 9.2195 	 1.8268 	 54.9112 	 2.0291 	 51.0701 	 30.6574 	 3.8411 	 2.8000
  0.2400 	 1.3000 	 9.8112 	 9.4027 	 1.8727 	 54.1859 	 2.0768 	 50.5155 	 29.9691 	 3.6704 	 2.9000
  0.2400 	 1.3000 	 9.7702 	 9.5839 	 1.9185 	 53.4836 	 2.1242 	 49.9754 	 29.2846 	 3.5082 	 3.0000
  0.2400 	 1.3000 	 9.7293 	 9.7632 	 1.9640 	 52.8027 	 2.1714 	 49.4489 	 28.6035 	 3.3538 	 3.1000
  0.2400 	 1.3000 	 9.6883 	 9.9408 	 2.0093 	 52.1420 	 2.2183 	 48.9354 	 27.9252 	 3.2066 	 3.2000
  0.2400 	 1.3000 	 9.6473 	 10.1169 	 2.0545 	 51.5002 	 2.2649 	 48.4342 	 27.2491 	 3.0660 	 3.3000
  0.2400 	 1.3000 	 9.6063 	 10.2913 	 2.0995 	 50.8761 	 2.3114 	 47.9447 	 26.5748 	 2.9314 	 3.4000
  0.2400 	 1.3000 	 9.5653 	 10.4644 	 2.1443 	 50.2689 	 2.3576 	 47.4665 	 25.9017 	 2.8024 	 3.5000
  0.2400 	 1.3000 	 9.5243 	 10.6362 	 2.1890 	 49.6775 	 2.4037 	 46.9989 	 25.2291 	 2.6786 	 3.6000
  0.2400 	 1.3000 	 9.4833 	 10.8067 	 2.2335 	 49.1010 	 2.4496 	 46.5416 	 24.5563 	 2.5595 	 3.7000
  0.2400 	 1.3000 	 9.4423 	 10.9760 	 2.2779 	 48.5387 	 2.4953 	 46.0939 	 23.8827 	 2.4448 	 3.8000
  0.2400 	 1.3000 	 9.4013 	 11.1442 	 2.3222 	 47.9898 	 2.5408 	 45.6557 	 23.2075 	 2.3341 	 3.9000
  0.2500 	 1.3000 	 9.8112 	 9.4027 	 1.8699 	 54.5967 	 2.0768 	 50.5155 	 32.1632 	 4.0812 	 2.9000
  0.2500 	 1.3000 	 9.7702 	 9.5839 	 1.9157 	 53.8923 	 2.1242 	 49.9754 	 31.5628 	 3.9169 	 3.0000
  0.2500 	 1.3000 	 9.7293 	 9.7632 	 1.9612 	 53.2097 	 2.1714 	 49.4489 	 30.9674 	 3.7608 	 3.1000
  0.2500 	 1.3000 	 9.6883 	 9.9408 	 2.0066 	 52.5476 	 2.2183 	 48.9354 	 30.3767 	 3.6122 	 3.2000
  0.2500 	 1.3000 	 9.6473 	 10.1169 	 2.0517 	 51.9049 	 2.2649 	 48.4342 	 29.7904 	 3.4707 	 3.3000
  0.2500 	 1.3000 	 9.6063 	 10.2913 	 2.0967 	 51.2803 	 2.3114 	 47.9447 	 29.2082 	 3.3356 	 3.4000
  0.2500 	 1.3000 	 9.5653 	 10.4644 	 2.1415 	 50.6730 	 2.3576 	 47.4665 	 28.6298 	 3.2065 	 3.5000
  0.2500 	 1.3000 	 9.5243 	 10.6362 	 2.1862 	 50.0819 	 2.4037 	 46.9989 	 28.0548 	 3.0830 	 3.6000
  0.2500 	 1.3000 	 9.4833 	 10.8067 	 2.2308 	 49.5061 	 2.4496 	 46.5416 	 27.4830 	 2.9646 	 3.7000
  0.2500 	 1.3000 	 9.4423 	 10.9760 	 2.2752 	 48.9449 	 2.4953 	 46.0939 	 26.9139 	 2.8510 	 3.8000
  0.2500 	 1.3000 	 9.4013 	 11.1442 	 2.3194 	 48.3975 	 2.5408 	 45.6557 	 26.3472 	 2.7418 	 3.9000
  0.2600 	 1.4000 	 9.9342 	 9.1813 	 1.7283 	 54.4965 	 1.9839 	 53.0320 	 9.7811 	 1.4645 	 2.8000
  0.2600 	 1.3000 	 9.8112 	 9.4027 	 1.8670 	 54.9842 	 2.0768 	 50.5155 	 34.0202 	 4.4687 	 2.9000
  0.2600 	 1.4000 	 9.8961 	 9.3621 	 1.7714 	 53.4736 	 2.0294 	 52.4912 	 6.7081 	 0.9824 	 2.9000
  0.2600 	 1.3000 	 9.7702 	 9.5839 	 1.9128 	 54.2764 	 2.1242 	 49.9754 	 33.4859 	 4.3010 	 3.0000
  0.2600 	 1.3000 	 9.7293 	 9.7632 	 1.9583 	 53.5908 	 2.1714 	 49.4489 	 32.9571 	 4.1419 	 3.1000
  0.2600 	 1.3000 	 9.6883 	 9.9408 	 2.0037 	 52.9260 	 2.2183 	 48.9354 	 32.4336 	 3.9907 	 3.2000
  0.2600 	 1.3000 	 9.6473 	 10.1169 	 2.0488 	 52.2809 	 2.2649 	 48.4342 	 31.9154 	 3.8468 	 3.3000
  0.2600 	 1.3000 	 9.6063 	 10.2913 	 2.0938 	 51.6543 	 2.3114 	 47.9447 	 31.4023 	 3.7096 	 3.4000
  0.2600 	 1.3000 	 9.5653 	 10.4644 	 2.1387 	 51.0452 	 2.3576 	 47.4665 	 30.8939 	 3.5787 	 3.5000
  0.2600 	 1.3000 	 9.5243 	 10.6362 	 2.1834 	 50.4526 	 2.4037 	 46.9989 	 30.3901 	 3.4537 	 3.6000
  0.2600 	 1.3000 	 9.4833 	 10.8067 	 2.2279 	 49.8756 	 2.4496 	 46.5416 	 29.8907 	 3.3340 	 3.7000
  0.2600 	 1.3000 	 9.4423 	 10.9760 	 2.2723 	 49.3134 	 2.4953 	 46.0939 	 29.3954 	 3.2195 	 3.8000
  0.2600 	 1.3000 	 9.4013 	 11.1442 	 2.3166 	 48.7653 	 2.5408 	 45.6557 	 28.9041 	 3.1096 	 3.9000
  0.2700 	 1.4000 	 9.8961 	 9.3621 	 1.7684 	 54.5785 	 2.0294 	 52.4912 	 13.8008 	 2.0873 	 2.9000
  0.2700 	 1.3000 	 9.7702 	 9.5839 	 1.9097 	 54.6421 	 2.1242 	 49.9754 	 35.1319 	 4.6667 	 3.0000
  0.2700 	 1.4000 	 9.8581 	 9.5410 	 1.8114 	 53.7373 	 2.0746 	 51.9640 	 11.9817 	 1.7733 	 3.0000
  0.2700 	 1.3000 	 9.7293 	 9.7632 	 1.9553 	 53.9526 	 2.1714 	 49.4489 	 34.6571 	 4.5038 	 3.1000
  0.2700 	 1.4000 	 9.8200 	 9.7179 	 1.8541 	 52.8835 	 2.1195 	 51.4496 	 9.8949 	 1.4339 	 3.1000
  0.2700 	 1.3000 	 9.6883 	 9.9408 	 2.0007 	 53.2844 	 2.2183 	 48.9354 	 34.1879 	 4.3490 	 3.2000
  0.2700 	 1.4000 	 9.7820 	 9.8930 	 1.8967 	 51.9855 	 2.1642 	 50.9474 	 7.3115 	 1.0381 	 3.2000
  0.2700 	 1.3000 	 9.6473 	 10.1169 	 2.0459 	 52.6361 	 2.2649 	 48.4342 	 33.7240 	 4.2019 	 3.3000
  0.2700 	 1.4000 	 9.7439 	 10.0664 	 1.9391 	 50.9006 	 2.2086 	 50.4569 	 3.1883 	 0.4437 	 3.3000
  0.2700 	 1.3000 	 9.6063 	 10.2913 	 2.0909 	 52.0065 	 2.3114 	 47.9447 	 33.2654 	 4.0618 	 3.4000
  0.2700 	 1.3000 	 9.5653 	 10.4644 	 2.1357 	 51.3946 	 2.3576 	 47.4665 	 32.8119 	 3.9281 	 3.5000
  0.2700 	 1.3000 	 9.5243 	 10.6362 	 2.1804 	 50.7995 	 2.4037 	 46.9989 	 32.3633 	 3.8006 	 3.6000
  0.2700 	 1.3000 	 9.4833 	 10.8067 	 2.2250 	 50.2202 	 2.4496 	 46.5416 	 31.9196 	 3.6787 	 3.7000
  0.2700 	 1.3000 	 9.4423 	 10.9760 	 2.2694 	 49.6560 	 2.4953 	 46.0939 	 31.4805 	 3.5620 	 3.8000
  0.2700 	 1.3000 	 9.4013 	 11.1442 	 2.3137 	 49.1060 	 2.5408 	 45.6557 	 31.0459 	 3.4503 	 3.9000
  0.2800 	 1.3000 	 9.7702 	 9.5839 	 1.9066 	 54.9933 	 2.1242 	 49.9754 	 36.5548 	 5.0179 	 3.0000
  0.2800 	 1.4000 	 9.8581 	 9.5410 	 1.8082 	 54.5130 	 2.0746 	 51.9640 	 16.6906 	 2.5490 	 3.0000
  0.2800 	 1.3000 	 9.7293 	 9.7632 	 1.9522 	 54.2996 	 2.1714 	 49.4489 	 36.1253 	 4.8507 	 3.1000
  0.2800 	 1.4000 	 9.8200 	 9.7179 	 1.8510 	 53.7421 	 2.1195 	 51.4496 	 15.3332 	 2.2925 	 3.1000
  0.2800 	 1.3000 	 9.6883 	 9.9408 	 1.9976 	 53.6273 	 2.2183 	 48.9354 	 35.7012 	 4.6919 	 3.2000
  0.2800 	 1.4000 	 9.7820 	 9.8930 	 1.8935 	 52.9808 	 2.1642 	 50.9474 	 13.8834 	 2.0334 	 3.2000
  0.2800 	 1.3000 	 9.6473 	 10.1169 	 2.0428 	 52.9751 	 2.2649 	 48.4342 	 35.2823 	 4.5410 	 3.3000
  0.2800 	 1.4000 	 9.7439 	 10.0664 	 1.9359 	 52.2236 	 2.2086 	 50.4569 	 12.3073 	 1.7667 	 3.3000
  0.2800 	 1.3000 	 9.6063 	 10.2913 	 2.0878 	 52.3420 	 2.3114 	 47.9447 	 34.8685 	 4.3973 	 3.4000
  0.2800 	 1.4000 	 9.7058 	 10.2383 	 1.9781 	 51.4620 	 2.2527 	 49.9775 	 10.5464 	 1.4846 	 3.4000
  0.2800 	 1.3000 	 9.5653 	 10.4644 	 2.1327 	 51.7268 	 2.3576 	 47.4665 	 34.4597 	 4.2603 	 3.5000
  0.2800 	 1.4000 	 9.6678 	 10.4087 	 2.0202 	 50.6804 	 2.2967 	 49.5086 	 8.4848 	 1.1718 	 3.5000
  0.2800 	 1.3000 	 9.5243 	 10.6362 	 2.1774 	 51.1286 	 2.4037 	 46.9989 	 34.0560 	 4.1297 	 3.6000
  0.2800 	 1.4000 	 9.6297 	 10.5776 	 2.0621 	 49.8371 	 2.3405 	 49.0499 	 5.8073 	 0.7872 	 3.6000
  0.2800 	 1.3000 	 9.4833 	 10.8067 	 2.2219 	 50.5464 	 2.4496 	 46.5416 	 33.6570 	 4.0049 	 3.7000
  0.2800 	 1.3000 	 9.4423 	 10.9760 	 2.2664 	 49.9794 	 2.4953 	 46.0939 	 33.2628 	 3.8855 	 3.8000
  0.2800 	 1.3000 	 9.4013 	 11.1442 	 2.3107 	 49.4269 	 2.5408 	 45.6557 	 32.8732 	 3.7712 	 3.9000
  0.2900 	 1.3000 	 9.7293 	 9.7632 	 1.9490 	 54.6345 	 2.1714 	 49.4489 	 37.4033 	 5.1856 	 3.1000
  0.2900 	 1.4000 	 9.8200 	 9.7179 	 1.8477 	 54.3770 	 2.1195 	 51.4496 	 18.9894 	 2.9274 	 3.1000
  0.2900 	 1.3000 	 9.6883 	 9.9408 	 1.9944 	 53.9578 	 2.2183 	 48.9354 	 37.0176 	 5.0224 	 3.2000
  0.2900 	 1.4000 	 9.7820 	 9.8930 	 1.8903 	 53.6494 	 2.1642 	 50.9474 	 17.8955 	 2.7020 	 3.2000
  0.2900 	 1.3000 	 9.6473 	 10.1169 	 2.0396 	 53.3015 	 2.2649 	 48.4342 	 36.6368 	 4.8673 	 3.3000
  0.2900 	 1.4000 	 9.7439 	 10.0664 	 1.9327 	 52.9368 	 2.2086 	 50.4569 	 16.7600 	 2.4799 	 3.3000
  0.2900 	 1.3000 	 9.6063 	 10.2913 	 2.0846 	 52.6644 	 2.3114 	 47.9447 	 36.2609 	 4.7197 	 3.4000
  0.2900 	 1.4000 	 9.7058 	 10.2383 	 1.9749 	 52.2367 	 2.2527 	 49.9775 	 15.5727 	 2.2592 	 3.4000
  0.2900 	 1.3000 	 9.5653 	 10.4644 	 2.1295 	 52.0455 	 2.3576 	 47.4665 	 35.8898 	 4.5791 	 3.5000
  0.2900 	 1.4000 	 9.6678 	 10.4087 	 2.0170 	 51.5466 	 2.2967 	 49.5086 	 14.3199 	 2.0380 	 3.5000
  0.2900 	 1.3000 	 9.5243 	 10.6362 	 2.1742 	 51.4438 	 2.4037 	 46.9989 	 35.5235 	 4.4449 	 3.6000
  0.2900 	 1.4000 	 9.6297 	 10.5776 	 2.0589 	 50.8630 	 2.3405 	 49.0499 	 12.9813 	 1.8131 	 3.6000
  0.2900 	 1.3000 	 9.4833 	 10.8067 	 2.2188 	 50.8583 	 2.4496 	 46.5416 	 35.1618 	 4.3167 	 3.7000
  0.2900 	 1.4000 	 9.5916 	 10.7453 	 2.1007 	 50.1815 	 2.3840 	 48.6008 	 11.5257 	 1.5806 	 3.7000
  0.2900 	 1.3000 	 9.4423 	 10.9760 	 2.2632 	 50.2882 	 2.4953 	 46.0939 	 34.8047 	 4.1942 	 3.8000
  0.2900 	 1.4000 	 9.5536 	 10.9117 	 2.1423 	 49.4947 	 2.4274 	 48.1610 	 9.9004 	 1.3337 	 3.8000
  0.2900 	 1.3000 	 9.4013 	 11.1442 	 2.3075 	 49.7327 	 2.5408 	 45.6557 	 34.4521 	 4.0770 	 3.9000
  0.2900 	 1.4000 	 9.5155 	 11.0769 	 2.1838 	 48.7892 	 2.4706 	 47.7301 	 8.0009 	 1.0591 	 3.9000
  0.3000 	 1.3000 	 9.7293 	 9.7632 	 1.9456 	 54.9596 	 2.1714 	 49.4489 	 38.5220 	 5.5107 	 3.1000
  0.3000 	 1.4000 	 9.8200 	 9.7179 	 1.8444 	 54.9134 	 2.1195 	 51.4496 	 21.8048 	 3.4639 	 3.1000
  0.3000 	 1.3000 	 9.6883 	 9.9408 	 1.9911 	 54.2782 	 2.2183 	 48.9354 	 38.1697 	 5.3429 	 3.2000
  0.3000 	 1.4000 	 9.7820 	 9.8930 	 1.8870 	 54.1996 	 2.1642 	 50.9474 	 20.9053 	 3.2521 	 3.2000
  0.3000 	 1.3000 	 9.6473 	 10.1169 	 2.0363 	 53.6175 	 2.2649 	 48.4342 	 37.8220 	 5.1833 	 3.3000
  0.3000 	 1.4000 	 9.7439 	 10.0664 	 1.9294 	 53.5037 	 2.2086 	 50.4569 	 19.9883 	 3.0468 	 3.3000
  0.3000 	 1.3000 	 9.6063 	 10.2913 	 2.0813 	 52.9763 	 2.3114 	 47.9447 	 37.4789 	 5.0315 	 3.4000
  0.3000 	 1.4000 	 9.7058 	 10.2383 	 1.9716 	 52.8243 	 2.2527 	 49.9775 	 19.0506 	 2.8468 	 3.4000
  0.3000 	 1.3000 	 9.5653 	 10.4644 	 2.1262 	 52.3534 	 2.3576 	 47.4665 	 37.1401 	 4.8869 	 3.5000
  0.3000 	 1.4000 	 9.6678 	 10.4087 	 2.0137 	 52.1599 	 2.2967 	 49.5086 	 18.0884 	 2.6512 	 3.5000
  0.3000 	 1.3000 	 9.5243 	 10.6362 	 2.1709 	 51.7479 	 2.4037 	 46.9989 	 36.8059 	 4.7489 	 3.6000
  0.3000 	 1.4000 	 9.6297 	 10.5776 	 2.0556 	 51.5089 	 2.3405 	 49.0499 	 17.0967 	 2.4590 	 3.6000
  0.3000 	 1.3000 	 9.4833 	 10.8067 	 2.2155 	 51.1588 	 2.4496 	 46.5416 	 36.4760 	 4.6172 	 3.7000
  0.3000 	 1.4000 	 9.5916 	 10.7453 	 2.0974 	 50.8699 	 2.3840 	 48.6008 	 16.0691 	 2.2690 	 3.7000
  0.3000 	 1.3000 	 9.4423 	 10.9760 	 2.2600 	 50.5852 	 2.4953 	 46.0939 	 36.1504 	 4.4913 	 3.8000
  0.3000 	 1.4000 	 9.5536 	 10.9117 	 2.1390 	 50.2410 	 2.4274 	 48.1610 	 14.9977 	 2.0800 	 3.8000
  0.3000 	 1.3000 	 9.4013 	 11.1442 	 2.3043 	 50.0265 	 2.5408 	 45.6557 	 35.8292 	 4.3708 	 3.9000
  0.3000 	 1.4000 	 9.5155 	 11.0769 	 2.1805 	 49.6203 	 2.4706 	 47.7301 	 13.8712 	 1.8902 	 3.9000
  0.3100 	 1.3000 	 9.6883 	 9.9408 	 1.9876 	 54.5903 	 2.2183 	 48.9354 	 39.1829 	 5.6550 	 3.2000
  0.3100 	 1.4000 	 9.7820 	 9.8930 	 1.8835 	 54.6839 	 2.1642 	 50.9474 	 23.3249 	 3.7364 	 3.2000
  0.3100 	 1.3000 	 9.6473 	 10.1169 	 2.0329 	 53.9250 	 2.2649 	 48.4342 	 38.8643 	 5.4908 	 3.3000
  0.3100 	 1.4000 	 9.7439 	 10.0664 	 1.9259 	 53.9953 	 2.2086 	 50.4569 	 22.5462 	 3.5384 	 3.3000
  0.3100 	 1.3000 	 9.6063 	 10.2913 	 2.0779 	 53.2794 	 2.3114 	 47.9447 	 38.5498 	 5.3346 	 3.4000
  0.3100 	 1.4000 	 9.7058 	 10.2383 	 1.9682 	 53.3247 	 2.2527 	 49.9775 	 21.7587 	 3.3472 	 3.4000
  0.3100 	 1.3000 	 9.5653 	 10.4644 	 2.1228 	 52.6523 	 2.3576 	 47.4665 	 38.2395 	 5.1858 	 3.5000
  0.3100 	 1.4000 	 9.6678 	 10.4087 	 2.0103 	 52.6709 	 2.2967 	 49.5086 	 20.9607 	 3.1623 	 3.5000
  0.3100 	 1.3000 	 9.5243 	 10.6362 	 2.1676 	 52.0428 	 2.4037 	 46.9989 	 37.9332 	 5.0439 	 3.6000
  0.3100 	 1.4000 	 9.6297 	 10.5776 	 2.0522 	 52.0328 	 2.3405 	 49.0499 	 20.1506 	 2.9829 	 3.6000
  0.3100 	 1.3000 	 9.4833 	 10.8067 	 2.2122 	 51.4499 	 2.4496 	 46.5416 	 37.6309 	 4.9083 	 3.7000
  0.3100 	 1.4000 	 9.5916 	 10.7453 	 2.0940 	 51.4091 	 2.3840 	 48.6008 	 19.3261 	 2.8083 	 3.7000
  0.3100 	 1.3000 	 9.4423 	 10.9760 	 2.2566 	 50.8727 	 2.4953 	 46.0939 	 37.3327 	 4.7788 	 3.8000
  0.3100 	 1.4000 	 9.5536 	 10.9117 	 2.1356 	 50.7988 	 2.4274 	 48.1610 	 18.4848 	 2.6378 	 3.8000
  0.3100 	 1.3000 	 9.4013 	 11.1442 	 2.3010 	 50.3105 	 2.5408 	 45.6557 	 37.0385 	 4.6548 	 3.9000
  0.3100 	 1.4000 	 9.5155 	 11.0769 	 2.1771 	 50.2009 	 2.4706 	 47.7301 	 17.6236 	 2.4708 	 3.9000
  0.3200 	 1.3000 	 9.6883 	 9.9408 	 1.9841 	 54.8954 	 2.2183 	 48.9354 	 40.0767 	 5.9600 	 3.2000
  0.3200 	 1.3000 	 9.6473 	 10.1169 	 2.0294 	 54.2253 	 2.2649 	 48.4342 	 39.7841 	 5.7911 	 3.3000
  0.3200 	 1.4000 	 9.7439 	 10.0664 	 1.9224 	 54.4395 	 2.2086 	 50.4569 	 24.6607 	 3.9826 	 3.3000
  0.3200 	 1.3000 	 9.6063 	 10.2913 	 2.0744 	 53.5751 	 2.3114 	 47.9447 	 39.4953 	 5.6304 	 3.4000
  0.3200 	 1.4000 	 9.7058 	 10.2383 	 1.9647 	 53.7726 	 2.2527 	 49.9775 	 23.9773 	 3.7951 	 3.4000
  0.3200 	 1.3000 	 9.5653 	 10.4644 	 2.1194 	 52.9437 	 2.3576 	 47.4665 	 39.2101 	 5.4772 	 3.5000
  0.3200 	 1.4000 	 9.6678 	 10.4087 	 2.0068 	 53.1234 	 2.2967 	 49.5086 	 23.2896 	 3.6147 	 3.5000
  0.3200 	 1.3000 	 9.5243 	 10.6362 	 2.1641 	 52.3301 	 2.4037 	 46.9989 	 38.9285 	 5.3312 	 3.6000
  0.3200 	 1.4000 	 9.6297 	 10.5776 	 2.0487 	 52.4907 	 2.3405 	 49.0499 	 22.5971 	 3.4408 	 3.6000
  0.3200 	 1.3000 	 9.4833 	 10.8067 	 2.2087 	 51.7332 	 2.4496 	 46.5416 	 38.6507 	 5.1917 	 3.7000
  0.3200 	 1.4000 	 9.5916 	 10.7453 	 2.0905 	 51.8737 	 2.3840 	 48.6008 	 21.8987 	 3.2729 	 3.7000
  0.3200 	 1.3000 	 9.4423 	 10.9760 	 2.2532 	 51.1523 	 2.4953 	 46.0939 	 38.3766 	 5.0584 	 3.8000
  0.3200 	 1.4000 	 9.5536 	 10.9117 	 2.1322 	 51.2713 	 2.4274 	 48.1610 	 21.1935 	 3.1103 	 3.8000
  0.3200 	 1.3000 	 9.4013 	 11.1442 	 2.2975 	 50.5865 	 2.5408 	 45.6557 	 38.1061 	 4.9308 	 3.9000
  0.3200 	 1.4000 	 9.5155 	 11.0769 	 2.1737 	 50.6826 	 2.4706 	 47.7301 	 20.4803 	 2.9525 	 3.9000
  0.3300 	 1.5000 	 9.9342 	 9.5043 	 1.7044 	 54.4147 	 2.0337 	 53.7636 	 3.3645 	 0.6511 	 3.0000
  0.3300 	 1.3000 	 9.6473 	 10.1169 	 2.0258 	 54.5194 	 2.2649 	 48.4342 	 40.5980 	 6.0852 	 3.3000
  0.3300 	 1.4000 	 9.7439 	 10.0664 	 1.9188 	 54.8508 	 2.2086 	 50.4569 	 26.4528 	 4.3939 	 3.3000
  0.3300 	 1.3000 	 9.6063 	 10.2913 	 2.0709 	 53.8646 	 2.3114 	 47.9447 	 40.3322 	 5.9198 	 3.4000
  0.3300 	 1.4000 	 9.7058 	 10.2383 	 1.9610 	 54.1848 	 2.2527 	 49.9775 	 25.8476 	 4.2073 	 3.4000
  0.3300 	 1.3000 	 9.5653 	 10.4644 	 2.1158 	 53.2288 	 2.3576 	 47.4665 	 40.0696 	 5.7623 	 3.5000
  0.3300 	 1.4000 	 9.6678 	 10.4087 	 2.0032 	 53.5370 	 2.2967 	 49.5086 	 25.2413 	 4.0284 	 3.5000
  0.3300 	 1.3000 	 9.5243 	 10.6362 	 2.1605 	 52.6109 	 2.4037 	 46.9989 	 39.8104 	 5.6120 	 3.6000
  0.3300 	 1.4000 	 9.6297 	 10.5776 	 2.0451 	 52.9064 	 2.3405 	 49.0499 	 24.6337 	 3.8565 	 3.6000
  0.3300 	 1.3000 	 9.4833 	 10.8067 	 2.2052 	 52.0100 	 2.4496 	 46.5416 	 39.5544 	 5.4685 	 3.7000
  0.3300 	 1.4000 	 9.5916 	 10.7453 	 2.0869 	 52.2919 	 2.3840 	 48.6008 	 24.0242 	 3.6911 	 3.7000
  0.3300 	 1.3000 	 9.4423 	 10.9760 	 2.2496 	 51.4252 	 2.4953 	 46.0939 	 39.3017 	 5.3313 	 3.8000
  0.3300 	 1.4000 	 9.5536 	 10.9117 	 2.1286 	 51.6928 	 2.4274 	 48.1610 	 23.4125 	 3.5318 	 3.8000
  0.3300 	 1.3000 	 9.4013 	 11.1442 	 2.2940 	 50.8557 	 2.5408 	 45.6557 	 39.0524 	 5.2000 	 3.9000
  0.3300 	 1.4000 	 9.5155 	 11.0769 	 2.1701 	 51.1081 	 2.4706 	 47.7301 	 22.7979 	 3.3780 	 3.9000
  0.3400 	 1.5000 	 9.8987 	 9.6791 	 1.7410 	 54.8769 	 2.0768 	 53.2619 	 8.2974 	 1.6150 	 3.1000
  0.3400 	 1.5000 	 9.8632 	 9.8521 	 1.7813 	 53.7806 	 2.1195 	 52.7718 	 5.2924 	 1.0088 	 3.2000
  0.3400 	 1.3000 	 9.6473 	 10.1169 	 2.0221 	 54.8082 	 2.2649 	 48.4342 	 41.3194 	 6.3740 	 3.3000
  0.3400 	 1.3000 	 9.6063 	 10.2913 	 2.0672 	 54.1487 	 2.3114 	 47.9447 	 41.0746 	 6.2039 	 3.4000
  0.3400 	 1.4000 	 9.7058 	 10.2383 	 1.9573 	 54.5708 	 2.2527 	 49.9775 	 27.4534 	 4.5934 	 3.4000
  0.3400 	 1.3000 	 9.5653 	 10.4644 	 2.1121 	 53.5083 	 2.3576 	 47.4665 	 40.8325 	 6.0418 	 3.5000
  0.3400 	 1.4000 	 9.6678 	 10.4087 	 1.9995 	 53.9227 	 2.2967 	 49.5086 	 26.9108 	 4.4140 	 3.5000
  0.3400 	 1.3000 	 9.5243 	 10.6362 	 2.1569 	 52.8861 	 2.4037 	 46.9989 	 40.5934 	 5.8872 	 3.6000
  0.3400 	 1.4000 	 9.6297 	 10.5776 	 2.0414 	 53.2921 	 2.3405 	 49.0499 	 26.3686 	 4.2422 	 3.6000
  0.3400 	 1.3000 	 9.4833 	 10.8067 	 2.2015 	 52.2811 	 2.4496 	 46.5416 	 40.3572 	 5.7396 	 3.7000
  0.3400 	 1.4000 	 9.5916 	 10.7453 	 2.0832 	 52.6781 	 2.3840 	 48.6008 	 25.8267 	 4.0772 	 3.7000
  0.3400 	 1.3000 	 9.4423 	 10.9760 	 2.2460 	 51.6924 	 2.4953 	 46.0939 	 40.1239 	 5.5984 	 3.8000
  0.3400 	 1.4000 	 9.5536 	 10.9117 	 2.1249 	 52.0798 	 2.4274 	 48.1610 	 25.2848 	 3.9187 	 3.8000
  0.3400 	 1.3000 	 9.4013 	 11.1442 	 2.2904 	 51.1191 	 2.5408 	 45.6557 	 39.8937 	 5.4634 	 3.9000
  0.3400 	 1.4000 	 9.5155 	 11.0769 	 2.1665 	 51.4963 	 2.4706 	 47.7301 	 24.7426 	 3.7662 	 3.9000
  0.3500 	 1.5000 	 9.8632 	 9.8521 	 1.7774 	 54.9450 	 2.1195 	 52.7718 	 11.1025 	 2.1732 	 3.2000
  0.3500 	 1.5000 	 9.8276 	 10.0233 	 1.8174 	 54.0611 	 2.1620 	 52.2927 	 9.2209 	 1.7684 	 3.3000
  0.3500 	 1.3000 	 9.6063 	 10.2913 	 2.0634 	 54.4280 	 2.3114 	 47.9447 	 41.7338 	 6.4833 	 3.4000
  0.3500 	 1.4000 	 9.7058 	 10.2383 	 1.9535 	 54.9369 	 2.2527 	 49.9775 	 28.8496 	 4.9594 	 3.4000
  0.3500 	 1.5000 	 9.7921 	 10.1930 	 1.8573 	 53.1211 	 2.2043 	 51.8241 	 6.8989 	 1.2970 	 3.4000
  0.3500 	 1.3000 	 9.5653 	 10.4644 	 2.1083 	 53.7831 	 2.3576 	 47.4665 	 41.5106 	 6.3166 	 3.5000
  0.3500 	 1.4000 	 9.6678 	 10.4087 	 1.9956 	 54.2872 	 2.2967 	 49.5086 	 28.3588 	 4.7786 	 3.5000
  0.3500 	 1.5000 	 9.7566 	 10.3610 	 1.8970 	 51.9759 	 2.2464 	 51.3654 	 3.3105 	 0.6105 	 3.5000
  0.3500 	 1.3000 	 9.5243 	 10.6362 	 2.1531 	 53.1566 	 2.4037 	 46.9989 	 41.2898 	 6.1576 	 3.6000
  0.3500 	 1.4000 	 9.6297 	 10.5776 	 2.0376 	 53.6554 	 2.3405 	 49.0499 	 27.8695 	 4.6055 	 3.6000
  0.3500 	 1.3000 	 9.4833 	 10.8067 	 2.1978 	 52.5474 	 2.4496 	 46.5416 	 41.0716 	 6.0058 	 3.7000
  0.3500 	 1.4000 	 9.5916 	 10.7453 	 2.0795 	 53.0405 	 2.3840 	 48.6008 	 27.3815 	 4.4397 	 3.7000
  0.3500 	 1.3000 	 9.4423 	 10.9760 	 2.2423 	 51.9546 	 2.4953 	 46.0939 	 40.8561 	 5.8606 	 3.8000
  0.3500 	 1.4000 	 9.5536 	 10.9117 	 2.1211 	 52.4416 	 2.4274 	 48.1610 	 26.8946 	 4.2805 	 3.8000
  0.3500 	 1.3000 	 9.4013 	 11.1442 	 2.2866 	 51.3774 	 2.5408 	 45.6557 	 40.6431 	 5.7217 	 3.9000
  0.3500 	 1.4000 	 9.5155 	 11.0769 	 2.1627 	 51.8578 	 2.4706 	 47.7301 	 26.4089 	 4.1277 	 3.9000
  0.3600 	 1.5000 	 9.8276 	 10.0233 	 1.8135 	 54.8947 	 2.1620 	 52.2927 	 13.2198 	 2.6020 	 3.3000
  0.3600 	 1.3000 	 9.6063 	 10.2913 	 2.0595 	 54.7033 	 2.3114 	 47.9447 	 42.3193 	 6.7586 	 3.4000
  0.3600 	 1.5000 	 9.7921 	 10.1930 	 1.8534 	 54.0979 	 2.2043 	 51.8241 	 11.7862 	 2.2738 	 3.4000
  0.3600 	 1.3000 	 9.5653 	 10.4644 	 2.1045 	 54.0537 	 2.3576 	 47.4665 	 42.1135 	 6.5873 	 3.5000
  0.3600 	 1.4000 	 9.6678 	 10.4087 	 1.9917 	 54.6351 	 2.2967 	 49.5086 	 29.6274 	 5.1264 	 3.5000
  0.3600 	 1.5000 	 9.7566 	 10.3610 	 1.8931 	 53.2931 	 2.2464 	 51.3654 	 10.1883 	 1.9276 	 3.5000
  0.3600 	 1.3000 	 9.5243 	 10.6362 	 2.1493 	 53.4227 	 2.4037 	 46.9989 	 41.9097 	 6.4238 	 3.6000
  0.3600 	 1.4000 	 9.6297 	 10.5776 	 2.0337 	 54.0012 	 2.3405 	 49.0499 	 29.1821 	 4.9513 	 3.6000
  0.3600 	 1.5000 	 9.7211 	 10.5277 	 1.9327 	 52.4630 	 2.2882 	 50.9164 	 8.3312 	 1.5466 	 3.6000
  0.3600 	 1.3000 	 9.4833 	 10.8067 	 2.1939 	 52.8093 	 2.4496 	 46.5416 	 41.7081 	 6.2677 	 3.7000
  0.3600 	 1.4000 	 9.5916 	 10.7453 	 2.0756 	 53.3846 	 2.3840 	 48.6008 	 28.7386 	 4.7837 	 3.7000
  0.3600 	 1.5000 	 9.6855 	 10.6929 	 1.9721 	 51.5656 	 2.3298 	 50.4765 	 5.9767 	 1.0891 	 3.7000
  0.3600 	 1.3000 	 9.4423 	 10.9760 	 2.2384 	 52.2125 	 2.4953 	 46.0939 	 41.5088 	 6.1185 	 3.8000
  0.3600 	 1.4000 	 9.5536 	 10.9117 	 2.1173 	 52.7841 	 2.4274 	 48.1610 	 28.2969 	 4.6231 	 3.8000
  0.3600 	 1.5000 	 9.6500 	 10.8569 	 2.0114 	 50.3407 	 2.3712 	 50.0454 	 1.6503 	 0.2953 	 3.8000
  0.3600 	 1.3000 	 9.4013 	 11.1442 	 2.2828 	 51.6314 	 2.5408 	 45.6557 	 41.3117 	 5.9757 	 3.9000
  0.3600 	 1.4000 	 9.5155 	 11.0769 	 2.1589 	 52.1991 	 2.4706 	 47.7301 	 27.8570 	 4.4690 	 3.9000
  0.3700 	 1.3000 	 9.6063 	 10.2913 	 2.0555 	 54.9749 	 2.3114 	 47.9447 	 42.8394 	 7.0302 	 3.4000
  0.3700 	 1.5000 	 9.7921 	 10.1930 	 1.8493 	 54.7828 	 2.2043 	 51.8241 	 14.9504 	 2.9587 	 3.4000
  0.3700 	 1.3000 	 9.5653 	 10.4644 	 2.1005 	 54.3207 	 2.3576 	 47.4665 	 42.6496 	 6.8542 	 3.5000
  0.3700 	 1.4000 	 9.6678 	 10.4087 	 1.9877 	 54.9694 	 2.2967 	 49.5086 	 30.7469 	 5.4608 	 3.5000
  0.3700 	 1.5000 	 9.7566 	 10.3610 	 1.8891 	 54.0394 	 2.2464 	 51.3654 	 13.7795 	 2.6739 	 3.5000
  0.3700 	 1.3000 	 9.5243 	 10.6362 	 2.1453 	 53.6852 	 2.4037 	 46.9989 	 42.4616 	 6.6863 	 3.6000
  0.3700 	 1.4000 	 9.6297 	 10.5776 	 2.0297 	 54.3330 	 2.3405 	 49.0499 	 30.3391 	 5.2831 	 3.6000
  0.3700 	 1.5000 	 9.7211 	 10.5277 	 1.9286 	 53.3010 	 2.2882 	 50.9164 	 12.5260 	 2.3846 	 3.6000
  0.3700 	 1.3000 	 9.4833 	 10.8067 	 2.1900 	 53.0675 	 2.4496 	 46.5416 	 42.2754 	 6.5259 	 3.7000
  0.3700 	 1.4000 	 9.5916 	 10.7453 	 2.0716 	 53.7140 	 2.3840 	 48.6008 	 29.9334 	 5.1131 	 3.7000
  0.3700 	 1.5000 	 9.6855 	 10.6929 	 1.9681 	 52.5621 	 2.3298 	 50.4765 	 11.1617 	 2.0856 	 3.7000
  0.3700 	 1.3000 	 9.4423 	 10.9760 	 2.2345 	 52.4665 	 2.4953 	 46.0939 	 42.0911 	 6.3726 	 3.8000
  0.3700 	 1.4000 	 9.5536 	 10.9117 	 2.1133 	 53.1114 	 2.4274 	 48.1610 	 29.5298 	 4.9504 	 3.8000
  0.3700 	 1.5000 	 9.6500 	 10.8569 	 2.0074 	 51.8139 	 2.3712 	 50.0454 	 9.6389 	 1.7686 	 3.8000
  0.3700 	 1.3000 	 9.4013 	 11.1442 	 2.2789 	 51.8815 	 2.5408 	 45.6557 	 41.9087 	 6.2258 	 3.9000
  0.3700 	 1.4000 	 9.5155 	 11.0769 	 2.1549 	 52.5244 	 2.4706 	 47.7301 	 29.1283 	 4.7943 	 3.9000
  0.3700 	 1.5000 	 9.6145 	 11.0196 	 2.0465 	 51.0403 	 2.4124 	 49.6227 	 7.8651 	 1.4177 	 3.9000
  0.3800 	 1.3000 	 9.5653 	 10.4644 	 2.0964 	 54.5843 	 2.3576 	 47.4665 	 43.1261 	 7.1178 	 3.5000
  0.3800 	 1.5000 	 9.7566 	 10.3610 	 1.8849 	 54.6327 	 2.2464 	 51.3654 	 16.4219 	 3.2673 	 3.5000
  0.3800 	 1.3000 	 9.5243 	 10.6362 	 2.1413 	 53.9443 	 2.4037 	 46.9989 	 42.9527 	 6.9454 	 3.6000
  0.3800 	 1.4000 	 9.6297 	 10.5776 	 2.0257 	 54.6532 	 2.3405 	 49.0499 	 31.3651 	 5.6033 	 3.6000
  0.3800 	 1.5000 	 9.7211 	 10.5277 	 1.9245 	 53.9277 	 2.2882 	 50.9164 	 15.4299 	 3.0114 	 3.6000
  0.3800 	 1.3000 	 9.4833 	 10.8067 	 2.1860 	 53.3222 	 2.4496 	 46.5416 	 42.7808 	 6.7807 	 3.7000
  0.3800 	 1.4000 	 9.5916 	 10.7453 	 2.0675 	 54.0314 	 2.3840 	 48.6008 	 30.9921 	 5.4305 	 3.7000
  0.3800 	 1.5000 	 9.6855 	 10.6929 	 1.9640 	 53.2328 	 2.3298 	 50.4765 	 14.3906 	 2.7563 	 3.7000
  0.3800 	 1.3000 	 9.4423 	 10.9760 	 2.2305 	 52.7172 	 2.4953 	 46.0939 	 42.6104 	 6.6232 	 3.8000
  0.3800 	 1.4000 	 9.5536 	 10.9117 	 2.1093 	 53.4262 	 2.4274 	 48.1610 	 30.6214 	 5.2652 	 3.8000
  0.3800 	 1.5000 	 9.6500 	 10.8569 	 2.0033 	 52.5451 	 2.3712 	 50.0454 	 13.2927 	 2.4997 	 3.8000
  0.3800 	 1.3000 	 9.4013 	 11.1442 	 2.2749 	 52.1281 	 2.5408 	 45.6557 	 42.4417 	 6.4725 	 3.9000
  0.3800 	 1.4000 	 9.5155 	 11.0769 	 2.1509 	 52.8368 	 2.4706 	 47.7301 	 30.2527 	 5.1067 	 3.9000
  0.3800 	 1.5000 	 9.6145 	 11.0196 	 2.0424 	 51.8614 	 2.4124 	 49.6227 	 12.1196 	 2.2387 	 3.9000
  0.3900 	 1.3000 	 9.5653 	 10.4644 	 2.0923 	 54.8450 	 2.3576 	 47.4665 	 43.5488 	 7.3785 	 3.5000
  0.3900 	 1.3000 	 9.5243 	 10.6362 	 2.1371 	 54.2005 	 2.4037 	 46.9989 	 43.3892 	 7.2015 	 3.6000
  0.3900 	 1.4000 	 9.6297 	 10.5776 	 2.0215 	 54.9637 	 2.3405 	 49.0499 	 32.2790 	 5.9138 	 3.6000
  0.3900 	 1.5000 	 9.7211 	 10.5277 	 1.9203 	 54.4572 	 2.2882 	 50.9164 	 17.7035 	 3.5408 	 3.6000
  0.3900 	 1.3000 	 9.4833 	 10.8067 	 2.1818 	 53.5740 	 2.4496 	 46.5416 	 43.2307 	 7.0325 	 3.7000
  0.3900 	 1.4000 	 9.5916 	 10.7453 	 2.0634 	 54.3388 	 2.3840 	 48.6008 	 31.9349 	 5.7379 	 3.7000
  0.3900 	 1.5000 	 9.6855 	 10.6929 	 1.9598 	 53.7822 	 2.3298 	 50.4765 	 16.8436 	 3.3057 	 3.7000
  0.3900 	 1.3000 	 9.4423 	 10.9760 	 2.2264 	 52.9648 	 2.4953 	 46.0939 	 43.0734 	 6.8708 	 3.8000
  0.3900 	 1.4000 	 9.5536 	 10.9117 	 2.1051 	 53.7307 	 2.4274 	 48.1610 	 31.5929 	 5.5696 	 3.8000
  0.3900 	 1.5000 	 9.6500 	 10.8569 	 1.9991 	 53.1194 	 2.3712 	 50.0454 	 15.9546 	 3.0740 	 3.8000
  0.3900 	 1.3000 	 9.4013 	 11.1442 	 2.2708 	 52.3718 	 2.5408 	 45.6557 	 42.9174 	 6.7161 	 3.9000
  0.3900 	 1.4000 	 9.5155 	 11.0769 	 2.1467 	 53.1385 	 2.4706 	 47.7301 	 31.2530 	 5.4084 	 3.9000
  0.3900 	 1.5000 	 9.6145 	 11.0196 	 2.0383 	 52.4670 	 2.4124 	 49.6227 	 15.0313 	 2.8444 	 3.9000
  0.4000 	 1.3000 	 9.5243 	 10.6362 	 2.1329 	 54.4539 	 2.4037 	 46.9989 	 43.7764 	 7.4550 	 3.6000
  0.4000 	 1.5000 	 9.7211 	 10.5277 	 1.9160 	 54.9279 	 2.2882 	 50.9164 	 19.5783 	 4.0116 	 3.6000
  0.4000 	 1.3000 	 9.4833 	 10.8067 	 2.1776 	 53.8231 	 2.4496 	 46.5416 	 43.6305 	 7.2816 	 3.7000
  0.4000 	 1.4000 	 9.5916 	 10.7453 	 2.0591 	 54.6376 	 2.3840 	 48.6008 	 32.7775 	 6.0368 	 3.7000
  0.4000 	 1.5000 	 9.6855 	 10.6929 	 1.9555 	 54.2635 	 2.3298 	 50.4765 	 18.8375 	 3.7870 	 3.7000
  0.4000 	 1.3000 	 9.4423 	 10.9760 	 2.2222 	 53.2097 	 2.4953 	 46.0939 	 43.4855 	 7.1157 	 3.8000
  0.4000 	 1.4000 	 9.5536 	 10.9117 	 2.1009 	 54.0264 	 2.4274 	 48.1610 	 32.4610 	 5.8653 	 3.8000
  0.4000 	 1.5000 	 9.6500 	 10.8569 	 1.9948 	 53.6133 	 2.3712 	 50.0454 	 18.0803 	 3.5679 	 3.8000
  0.4000 	 1.3000 	 9.4013 	 11.1442 	 2.2666 	 52.6126 	 2.5408 	 45.6557 	 43.3415 	 6.9569 	 3.9000
  0.4000 	 1.4000 	 9.5155 	 11.0769 	 2.1425 	 53.4312 	 2.4706 	 47.7301 	 32.1465 	 5.7012 	 3.9000
  0.4000 	 1.5000 	 9.6145 	 11.0196 	 2.0340 	 52.9762 	 2.4124 	 49.6227 	 17.3045 	 3.3535 	 3.9000
  0.4100 	 1.3000 	 9.5243 	 10.6362 	 2.1286 	 54.7050 	 2.4037 	 46.9989 	 44.1190 	 7.7060 	 3.6000
  0.4100 	 1.3000 	 9.4833 	 10.8067 	 2.1733 	 54.0698 	 2.4496 	 46.5416 	 43.9851 	 7.5282 	 3.7000
  0.4100 	 1.4000 	 9.5916 	 10.7453 	 2.0548 	 54.9292 	 2.3840 	 48.6008 	 33.5326 	 6.3283 	 3.7000
  0.4100 	 1.5000 	 9.6855 	 10.6929 	 1.9511 	 54.7000 	 2.3298 	 50.4765 	 20.5160 	 4.2235 	 3.7000
  0.4100 	 1.3000 	 9.4423 	 10.9760 	 2.2179 	 53.4521 	 2.4953 	 46.0939 	 43.8516 	 7.3581 	 3.8000
  0.4100 	 1.4000 	 9.5536 	 10.9117 	 2.0965 	 54.3146 	 2.4274 	 48.1610 	 33.2391 	 6.1536 	 3.8000
  0.4100 	 1.5000 	 9.6500 	 10.8569 	 1.9904 	 54.0567 	 2.3712 	 50.0454 	 19.8525 	 4.0113 	 3.8000
  0.4100 	 1.3000 	 9.4013 	 11.1442 	 2.2623 	 52.8510 	 2.5408 	 45.6557 	 43.7189 	 7.1953 	 3.9000
  0.4100 	 1.4000 	 9.5155 	 11.0769 	 2.1382 	 53.7163 	 2.4706 	 47.7301 	 32.9474 	 5.9862 	 3.9000
  0.4100 	 1.5000 	 9.6145 	 11.0196 	 2.0296 	 53.4276 	 2.4124 	 49.6227 	 19.1781 	 3.8050 	 3.9000
  0.4200 	 1.6000 	 9.9009 	 9.9861 	 1.7043 	 54.8916 	 2.1232 	 53.9631 	 3.7704 	 0.9285 	 3.3000
  0.4200 	 1.3000 	 9.5243 	 10.6362 	 2.1242 	 54.9538 	 2.4037 	 46.9989 	 44.4211 	 7.9549 	 3.6000
  0.4200 	 1.3000 	 9.4833 	 10.8067 	 2.1689 	 54.3142 	 2.4496 	 46.5416 	 44.2985 	 7.7726 	 3.7000
  0.4200 	 1.3000 	 9.4423 	 10.9760 	 2.2135 	 53.6923 	 2.4953 	 46.0939 	 44.1760 	 7.5983 	 3.8000
  0.4200 	 1.4000 	 9.5536 	 10.9117 	 2.0921 	 54.5963 	 2.4274 	 48.1610 	 33.9380 	 6.4353 	 3.8000
  0.4200 	 1.5000 	 9.6500 	 10.8569 	 1.9860 	 54.4647 	 2.3712 	 50.0454 	 21.3676 	 4.4193 	 3.8000
  0.4200 	 1.3000 	 9.4013 	 11.1442 	 2.2579 	 53.0871 	 2.5408 	 45.6557 	 44.0540 	 7.4314 	 3.9000
  0.4200 	 1.4000 	 9.5155 	 11.0769 	 2.1338 	 53.9946 	 2.4706 	 47.7301 	 33.6671 	 6.2645 	 3.9000
  0.4200 	 1.5000 	 9.6145 	 11.0196 	 2.0252 	 53.8400 	 2.4124 	 49.6227 	 20.7689 	 4.2173 	 3.9000
  0.4300 	 1.6000 	 9.8343 	 10.3199 	 1.7753 	 53.9301 	 2.2043 	 53.0577 	 3.6041 	 0.8724 	 3.5000
  0.4300 	 1.3000 	 9.4833 	 10.8067 	 2.1644 	 54.5566 	 2.4496 	 46.5416 	 44.5744 	 8.0150 	 3.7000
  0.4300 	 1.3000 	 9.4423 	 10.9760 	 2.2090 	 53.9304 	 2.4953 	 46.0939 	 44.4624 	 7.8365 	 3.8000
  0.4300 	 1.4000 	 9.5536 	 10.9117 	 2.0876 	 54.8723 	 2.4274 	 48.1610 	 34.5668 	 6.7112 	 3.8000
  0.4300 	 1.5000 	 9.6500 	 10.8569 	 1.9814 	 54.8463 	 2.3712 	 50.0454 	 22.6845 	 4.8010 	 3.8000
  0.4300 	 1.3000 	 9.4013 	 11.1442 	 2.2535 	 53.3212 	 2.5408 	 45.6557 	 44.3505 	 7.6655 	 3.9000
  0.4300 	 1.4000 	 9.5155 	 11.0769 	 2.1293 	 54.2672 	 2.4706 	 47.7301 	 34.3148 	 6.5371 	 3.9000
  0.4300 	 1.5000 	 9.6145 	 11.0196 	 2.0206 	 54.2238 	 2.4124 	 49.6227 	 22.1454 	 4.6011 	 3.9000
  0.4400 	 1.6000 	 9.8010 	 10.4845 	 1.8082 	 54.2445 	 2.2445 	 52.6188 	 6.6950 	 1.6257 	 3.6000
  0.4400 	 1.3000 	 9.4833 	 10.8067 	 2.1598 	 54.7971 	 2.4496 	 46.5416 	 44.8160 	 8.2556 	 3.7000
  0.4400 	 1.6000 	 9.7677 	 10.6477 	 1.8456 	 53.0983 	 2.2844 	 52.1886 	 3.8186 	 0.9097 	 3.7000
  0.4400 	 1.3000 	 9.4423 	 10.9760 	 2.2044 	 54.1667 	 2.4953 	 46.0939 	 44.7140 	 8.0727 	 3.8000
  0.4400 	 1.3000 	 9.4013 	 11.1442 	 2.2489 	 53.5534 	 2.5408 	 45.6557 	 44.6118 	 7.8977 	 3.9000
  0.4400 	 1.4000 	 9.5155 	 11.0769 	 2.1247 	 54.5346 	 2.4706 	 47.7301 	 34.8984 	 6.8045 	 3.9000
  0.4400 	 1.5000 	 9.6145 	 11.0196 	 2.0160 	 54.5856 	 2.4124 	 49.6227 	 23.3519 	 4.9629 	 3.9000
  0.4500 	 1.6000 	 9.7677 	 10.6477 	 1.8408 	 54.3027 	 2.2844 	 52.1886 	 8.6795 	 2.1141 	 3.7000
  0.4500 	 1.3000 	 9.4423 	 10.9760 	 2.1998 	 54.4012 	 2.4953 	 46.0939 	 44.9338 	 8.3073 	 3.8000
  0.4500 	 1.6000 	 9.7344 	 10.8096 	 1.8781 	 53.4007 	 2.3242 	 51.7667 	 6.8348 	 1.6339 	 3.8000
  0.4500 	 1.3000 	 9.4013 	 11.1442 	 2.2443 	 53.7838 	 2.5408 	 45.6557 	 44.8408 	 8.1281 	 3.9000
  0.4500 	 1.4000 	 9.5155 	 11.0769 	 2.1200 	 54.7974 	 2.4706 	 47.7301 	 35.4246 	 7.0674 	 3.9000
  0.4500 	 1.5000 	 9.6145 	 11.0196 	 2.0113 	 54.9299 	 2.4124 	 49.6227 	 24.4194 	 5.3072 	 3.9000
  0.4500 	 1.6000 	 9.7011 	 10.9701 	 1.9153 	 52.3637 	 2.3637 	 51.3528 	 4.3062 	 1.0108 	 3.9000
  0.4600 	 1.6000 	 9.7344 	 10.8096 	 1.8733 	 54.2654 	 2.3242 	 51.7667 	 10.2262 	 2.4986 	 3.8000
  0.4600 	 1.6000 	 9.7011 	 10.9701 	 1.9104 	 53.4642 	 2.3637 	 51.3528 	 8.8015 	 2.1114 	 3.9000
  0.4700 	 1.6000 	 9.7344 	 10.8096 	 1.8683 	 54.9116 	 2.3242 	 51.7667 	 12.5962 	 3.1449 	 3.8000
  0.4700 	 1.6000 	 9.7011 	 10.9701 	 1.9055 	 54.1751 	 2.3637 	 51.3528 	 11.5149 	 2.8223 	 3.9000
  0.4800 	 1.6000 	 9.7011 	 10.9701 	 1.9005 	 54.7503 	 2.3637 	 51.3528 	 13.5704 	 3.3975 	 3.9000
  0.5300 	 1.7000 	 9.8402 	 10.6083 	 1.7171 	 54.6630 	 2.2462 	 53.7551 	 2.9427 	 0.9079 	 3.7000
  0.5400 	 1.7000 	 9.8088 	 10.7683 	 1.7471 	 54.8605 	 2.2845 	 53.3427 	 4.9161 	 1.5178 	 3.8000
  0.5500 	 1.7000 	 9.7775 	 10.9271 	 1.7769 	 54.8741 	 2.3226 	 52.9379 	 6.2666 	 1.9362 	 3.9000
