# d(e,e'p)n Central Kinematics Summary
# Beam Energy (Ei) = 11.000 GeV
# 4-Momentum Transfer (Q2) = 2.50 - 2.59 GeV (step: 0.01) 
# x-Bjorken (xbj) = 1.00 - 2.00 (step: 0.01) 
# Missing Momentum (Pr) = 0.35 - 0.41 GeV (step: 0.01) 
# Hadron Out-of-Plane Angle (phi): rotation axis is q-vector 
# thp = thq + thpq, phi = 180  (q-vector scatters at smaller  angles than proton scattering angle)# 
# # 
# Tensor Polarized Deuterium: d(e,e'p) kinematics :
# 
# Header Definitions: 
# Pr   : Central Missing Momentum [GeV/c] 
# xbj  : Bjorken x  
# kf   : e- final momentum [GeV/c] 
# th_e : e- scattering angle [deg] 
# Pf   : final proton momentum [GeV/c] 
# th_p : proton scattering angle [deg] 
# q    : 3-momentum transfer [GeV] 
# th_q : relative angle between q-vector and +z (lab)  [deg] 
# th_nq: relative angle between q-vector and recoil neutron [deg] 
# th_pq: relative angle between q-vector and knocked-out proton [deg] 
# Q2   : 4-Momentum Transfer [GeV^2]  
# 
#! Pr[f,0]/ 	  xbj[f,1]/ 	 kf[f,2]/ 	 th_e[f,3]/ 	 Pf[f,4]/ 	 th_p[f,5]/ 	 q[f,6]/ 	 th_q[f,7]/ 	 th_nq[f,8]/ 	 th_pq[f,9]/ 	 Q2[f,10]/
 
  0.3500 	 1.5000 	 10.1118 	 8.5978 	 1.4904 	 61.1560 	 1.8135 	 56.4678 	 20.3672 	 4.6882 	 2.5000

  0.3500 	 1.5500 	 10.1405 	 8.5856 	 1.4564 	 59.6888 	 1.7997 	 57.2660 	 10.1312 	 2.4227 	 2.5000  <-----

  0.4000 	 1.5600 	 10.1460 	 8.5833 	 1.4277 	 62.9206 	 1.7970 	 57.4209 	 20.0038 	 5.4996 	 2.5000
  
  0.4000 	 1.5650 	 10.1487 	 8.5822 	 1.4245 	 62.8327 	 1.7957 	 57.4978 	 19.3360 	 5.3349 	 2.5000
  0.4000 	 1.5700 	 10.1514 	 8.5810 	 1.4212 	 62.7378 	 1.7945 	 57.5743 	 18.6490 	 5.1635 	 2.5000
  0.4000 	 1.5750 	 10.1541 	 8.5799 	 1.4180 	 62.6352 	 1.7932 	 57.6504 	 17.9406 	 4.9848 	 2.5000
  0.4000 	 1.5800 	 10.1568 	 8.5787 	 1.4148 	 62.5241 	 1.7919 	 57.7261 	 17.2080 	 4.7980 	 2.5000
  0.4000 	 1.5850 	 10.1595 	 8.5776 	 1.4116 	 62.4036 	 1.7907 	 57.8015 	 16.4481 	 4.6021 	 2.5000
  0.4000 	 1.5900 	 10.1621 	 8.5765 	 1.4084 	 62.2723 	 1.7894 	 57.8765 	 15.6566 	 4.3958 	 2.5000
  0.4000 	 1.5950 	 10.1647 	 8.5754 	 1.4053 	 62.1288 	 1.7882 	 57.9511 	 14.8287 	 4.1777 	 2.5000
  0.4000 	 1.6000 	 10.1674 	 8.5743 	 1.4021 	 61.9711 	 1.7870 	 58.0254 	 13.9577 	 3.9457 	 2.5000
  0.4000 	 1.6050 	 10.1699 	 8.5732 	 1.3990 	 61.7967 	 1.7858 	 58.0993 	 13.0349 	 3.6974 	 2.5000
  0.4000 	 1.6100 	 10.1725 	 8.5721 	 1.3959 	 61.6020 	 1.7846 	 58.1728 	 12.0483 	 3.4292 	 2.5000
  0.4000 	 1.6150 	 10.1751 	 8.5710 	 1.3928 	 61.3819 	 1.7834 	 58.2460 	 10.9808 	 3.1359 	 2.5000
  0.4000 	 1.6200 	 10.1776 	 8.5699 	 1.3897 	 61.1286 	 1.7822 	 58.3188 	 9.8058 	 2.8097 	 2.5000
  0.4000 	 1.6250 	 10.1802 	 8.5689 	 1.3867 	 60.8289 	 1.7810 	 58.3913 	 8.4788 	 2.4376 	 2.5000
  0.4000 	 1.6300 	 10.1827 	 8.5678 	 1.3836 	 60.4573 	 1.7799 	 58.4634 	 6.9124 	 1.9939 	 2.5000
  0.4000 	 1.4100 	 10.0514 	 8.6410 	 1.5397 	 63.5916 	 1.8466 	 54.8651 	 35.7326 	 8.7265 	 2.5100
  0.4000 	 1.4150 	 10.0547 	 8.6395 	 1.5358 	 63.6056 	 1.8449 	 54.9548 	 35.2750 	 8.6508 	 2.5100
  0.4000 	 1.4200 	 10.0581 	 8.6381 	 1.5319 	 63.6175 	 1.8432 	 55.0440 	 34.8148 	 8.5735 	 2.5100
  0.4000 	 1.4250 	 10.0614 	 8.6367 	 1.5280 	 63.6272 	 1.8415 	 55.1327 	 34.3519 	 8.4945 	 2.5100
  0.4000 	 1.4300 	 10.0646 	 8.6353 	 1.5242 	 63.6348 	 1.8398 	 55.2210 	 33.8861 	 8.4138 	 2.5100
  0.4000 	 1.4350 	 10.0679 	 8.6339 	 1.5203 	 63.6402 	 1.8382 	 55.3088 	 33.4172 	 8.3314 	 2.5100
  0.4000 	 1.4400 	 10.0711 	 8.6325 	 1.5165 	 63.6433 	 1.8365 	 55.3961 	 32.9451 	 8.2471 	 2.5100
  0.4000 	 1.4450 	 10.0743 	 8.6311 	 1.5127 	 63.6440 	 1.8349 	 55.4831 	 32.4696 	 8.1610 	 2.5100
  0.4000 	 1.4500 	 10.0775 	 8.6297 	 1.5090 	 63.6424 	 1.8333 	 55.5695 	 31.9906 	 8.0729 	 2.5100
  0.4000 	 1.4550 	 10.0807 	 8.6284 	 1.5052 	 63.6384 	 1.8317 	 55.6555 	 31.5077 	 7.9829 	 2.5100
  0.4000 	 1.4600 	 10.0839 	 8.6270 	 1.5015 	 63.6319 	 1.8301 	 55.7411 	 31.0209 	 7.8908 	 2.5100
  0.4000 	 1.4650 	 10.0870 	 8.6257 	 1.4979 	 63.6229 	 1.8285 	 55.8262 	 30.5298 	 7.7966 	 2.5100
  0.4000 	 1.4700 	 10.0901 	 8.6243 	 1.4942 	 63.6112 	 1.8270 	 55.9109 	 30.0343 	 7.7003 	 2.5100
  0.4000 	 1.4750 	 10.0932 	 8.6230 	 1.4905 	 63.5969 	 1.8255 	 55.9952 	 29.5341 	 7.6017 	 2.5100
  0.4000 	 1.4800 	 10.0962 	 8.6217 	 1.4869 	 63.5797 	 1.8239 	 56.0790 	 29.0288 	 7.5007 	 2.5100
  0.4000 	 1.4850 	 10.0993 	 8.6204 	 1.4833 	 63.5597 	 1.8224 	 56.1625 	 28.5183 	 7.3973 	 2.5100
  0.4000 	 1.4900 	 10.1023 	 8.6191 	 1.4797 	 63.5368 	 1.8209 	 56.2454 	 28.0021 	 7.2914 	 2.5100
  0.4000 	 1.4950 	 10.1053 	 8.6178 	 1.4762 	 63.5108 	 1.8195 	 56.3280 	 27.4799 	 7.1828 	 2.5100
  0.4000 	 1.5000 	 10.1083 	 8.6166 	 1.4727 	 63.4816 	 1.8180 	 56.4102 	 26.9514 	 7.0715 	 2.5100
  0.4000 	 1.5050 	 10.1113 	 8.6153 	 1.4691 	 63.4491 	 1.8166 	 56.4919 	 26.4161 	 6.9572 	 2.5100
  0.4000 	 1.5100 	 10.1142 	 8.6140 	 1.4656 	 63.4132 	 1.8151 	 56.5732 	 25.8735 	 6.8400 	 2.5100
  0.4000 	 1.5150 	 10.1171 	 8.6128 	 1.4622 	 63.3737 	 1.8137 	 56.6541 	 25.3231 	 6.7196 	 2.5100
  0.4000 	 1.5200 	 10.1200 	 8.6115 	 1.4587 	 63.3304 	 1.8123 	 56.7346 	 24.7645 	 6.5958 	 2.5100
  0.4000 	 1.5250 	 10.1229 	 8.6103 	 1.4553 	 63.2833 	 1.8109 	 56.8147 	 24.1969 	 6.4685 	 2.5100
  0.4000 	 1.5300 	 10.1258 	 8.6091 	 1.4519 	 63.2319 	 1.8095 	 56.8944 	 23.6197 	 6.3375 	 2.5100
  0.4000 	 1.5350 	 10.1286 	 8.6079 	 1.4485 	 63.1762 	 1.8081 	 56.9737 	 23.0322 	 6.2025 	 2.5100
  0.4000 	 1.5400 	 10.1315 	 8.6067 	 1.4451 	 63.1159 	 1.8068 	 57.0526 	 22.4334 	 6.0633 	 2.5100
  0.4000 	 1.5450 	 10.1343 	 8.6055 	 1.4418 	 63.0507 	 1.8054 	 57.1311 	 21.8224 	 5.9196 	 2.5100
  0.4000 	 1.5500 	 10.1371 	 8.6043 	 1.4384 	 62.9802 	 1.8041 	 57.2092 	 21.1981 	 5.7710 	 2.5100
  0.4000 	 1.5550 	 10.1398 	 8.6031 	 1.4351 	 62.9041 	 1.8027 	 57.2870 	 20.5593 	 5.6172 	 2.5100
  0.4000 	 1.5600 	 10.1426 	 8.6019 	 1.4318 	 62.8220 	 1.8014 	 57.3643 	 19.9046 	 5.4577 	 2.5100
  0.4000 	 1.5650 	 10.1453 	 8.6008 	 1.4285 	 62.7333 	 1.8001 	 57.4413 	 19.2321 	 5.2921 	 2.5100
  0.4000 	 1.5700 	 10.1480 	 8.5996 	 1.4253 	 62.6375 	 1.7988 	 57.5178 	 18.5401 	 5.1197 	 2.5100
  0.4000 	 1.5750 	 10.1508 	 8.5985 	 1.4220 	 62.5339 	 1.7976 	 57.5940 	 17.8261 	 4.9398 	 2.5100
  0.4000 	 1.5800 	 10.1534 	 8.5973 	 1.4188 	 62.4215 	 1.7963 	 57.6699 	 17.0873 	 4.7517 	 2.5100
  0.4000 	 1.5850 	 10.1561 	 8.5962 	 1.4156 	 62.2995 	 1.7950 	 57.7453 	 16.3203 	 4.5542 	 2.5100
  0.4000 	 1.5900 	 10.1588 	 8.5951 	 1.4124 	 62.1665 	 1.7938 	 57.8204 	 15.5210 	 4.3461 	 2.5100
  0.4000 	 1.5950 	 10.1614 	 8.5940 	 1.4093 	 62.0210 	 1.7926 	 57.8951 	 14.6839 	 4.1259 	 2.5100
  0.4000 	 1.6000 	 10.1640 	 8.5929 	 1.4061 	 61.8609 	 1.7913 	 57.9695 	 13.8022 	 3.8914 	 2.5100
  0.4000 	 1.6050 	 10.1666 	 8.5918 	 1.4030 	 61.6835 	 1.7901 	 58.0435 	 12.8666 	 3.6400 	 2.5100
  0.4000 	 1.6100 	 10.1692 	 8.5907 	 1.3999 	 61.4849 	 1.7889 	 58.1171 	 11.8642 	 3.3678 	 2.5100
  0.4000 	 1.6150 	 10.1718 	 8.5896 	 1.3968 	 61.2598 	 1.7877 	 58.1903 	 10.7765 	 3.0694 	 2.5100
  0.4000 	 1.6200 	 10.1743 	 8.5885 	 1.3937 	 60.9994 	 1.7865 	 58.2633 	 9.5743 	 2.7361 	 2.5100
  0.4000 	 1.6250 	 10.1769 	 8.5874 	 1.3906 	 60.6891 	 1.7854 	 58.3358 	 8.2073 	 2.3533 	 2.5100
  0.4000 	 1.6300 	 10.1794 	 8.5863 	 1.3876 	 60.2991 	 1.7842 	 58.4080 	 6.5734 	 1.8911 	 2.5100
  0.4000 	 1.4100 	 10.0476 	 8.6598 	 1.5441 	 63.5000 	 1.8512 	 54.8061 	 35.6979 	 8.6939 	 2.5200
  0.4000 	 1.4150 	 10.0510 	 8.6584 	 1.5402 	 63.5140 	 1.8495 	 54.8958 	 35.2391 	 8.6181 	 2.5200
  0.4000 	 1.4200 	 10.0543 	 8.6569 	 1.5363 	 63.5258 	 1.8478 	 54.9851 	 34.7777 	 8.5407 	 2.5200
  0.4000 	 1.4250 	 10.0576 	 8.6555 	 1.5324 	 63.5356 	 1.8461 	 55.0739 	 34.3135 	 8.4617 	 2.5200
  0.4000 	 1.4300 	 10.0609 	 8.6541 	 1.5285 	 63.5431 	 1.8444 	 55.1623 	 33.8464 	 8.3809 	 2.5200
  0.4000 	 1.4350 	 10.0642 	 8.6527 	 1.5247 	 63.5485 	 1.8428 	 55.2502 	 33.3762 	 8.2983 	 2.5200
  0.4000 	 1.4400 	 10.0674 	 8.6513 	 1.5209 	 63.5515 	 1.8411 	 55.3376 	 32.9027 	 8.2139 	 2.5200
  0.4000 	 1.4450 	 10.0707 	 8.6499 	 1.5171 	 63.5523 	 1.8395 	 55.4246 	 32.4258 	 8.1276 	 2.5200
  0.4000 	 1.4500 	 10.0739 	 8.6485 	 1.5133 	 63.5506 	 1.8379 	 55.5112 	 31.9453 	 8.0394 	 2.5200
  0.4000 	 1.4550 	 10.0770 	 8.6471 	 1.5096 	 63.5465 	 1.8363 	 55.5973 	 31.4609 	 7.9493 	 2.5200
  0.4000 	 1.4600 	 10.0802 	 8.6458 	 1.5058 	 63.5400 	 1.8347 	 55.6829 	 30.9725 	 7.8570 	 2.5200
  0.4000 	 1.4650 	 10.0833 	 8.6444 	 1.5021 	 63.5308 	 1.8331 	 55.7681 	 30.4799 	 7.7627 	 2.5200
  0.4000 	 1.4700 	 10.0865 	 8.6431 	 1.4985 	 63.5191 	 1.8315 	 55.8529 	 29.9827 	 7.6661 	 2.5200
  0.4000 	 1.4750 	 10.0896 	 8.6418 	 1.4948 	 63.5046 	 1.8300 	 55.9373 	 29.4807 	 7.5673 	 2.5200
  0.4000 	 1.4800 	 10.0926 	 8.6404 	 1.4912 	 63.4873 	 1.8285 	 56.0212 	 28.9737 	 7.4661 	 2.5200
  0.4000 	 1.4850 	 10.0957 	 8.6391 	 1.4876 	 63.4672 	 1.8270 	 56.1047 	 28.4613 	 7.3625 	 2.5200
  0.4000 	 1.4900 	 10.0987 	 8.6378 	 1.4840 	 63.4441 	 1.8255 	 56.1878 	 27.9432 	 7.2563 	 2.5200
  0.4000 	 1.4950 	 10.1017 	 8.6365 	 1.4804 	 63.4179 	 1.8240 	 56.2704 	 27.4190 	 7.1475 	 2.5200
  0.4000 	 1.5000 	 10.1047 	 8.6353 	 1.4769 	 63.3885 	 1.8225 	 56.3527 	 26.8883 	 7.0358 	 2.5200
  0.4000 	 1.5050 	 10.1077 	 8.6340 	 1.4733 	 63.3558 	 1.8210 	 56.4345 	 26.3508 	 6.9213 	 2.5200
  0.4000 	 1.5100 	 10.1107 	 8.6327 	 1.4698 	 63.3196 	 1.8196 	 56.5159 	 25.8059 	 6.8037 	 2.5200
  0.4000 	 1.5150 	 10.1136 	 8.6315 	 1.4663 	 63.2799 	 1.8182 	 56.5969 	 25.2531 	 6.6830 	 2.5200
  0.4000 	 1.5200 	 10.1165 	 8.6302 	 1.4629 	 63.2363 	 1.8167 	 56.6775 	 24.6920 	 6.5588 	 2.5200
  0.4000 	 1.5250 	 10.1194 	 8.6290 	 1.4594 	 63.1888 	 1.8153 	 56.7577 	 24.1217 	 6.4311 	 2.5200
  0.4000 	 1.5300 	 10.1223 	 8.6277 	 1.4560 	 63.1371 	 1.8139 	 56.8374 	 23.5417 	 6.2996 	 2.5200
  0.4000 	 1.5350 	 10.1252 	 8.6265 	 1.4526 	 63.0810 	 1.8126 	 56.9168 	 22.9511 	 6.1641 	 2.5200
  0.4000 	 1.5400 	 10.1280 	 8.6253 	 1.4492 	 63.0202 	 1.8112 	 56.9958 	 22.3491 	 6.0244 	 2.5200
  0.4000 	 1.5450 	 10.1308 	 8.6241 	 1.4459 	 62.9544 	 1.8098 	 57.0744 	 21.7347 	 5.8800 	 2.5200
  0.4000 	 1.5500 	 10.1336 	 8.6229 	 1.4425 	 62.8834 	 1.8085 	 57.1526 	 21.1068 	 5.7308 	 2.5200
  0.4000 	 1.5550 	 10.1364 	 8.6217 	 1.4392 	 62.8066 	 1.8072 	 57.2304 	 20.4640 	 5.5762 	 2.5200
  0.4000 	 1.5600 	 10.1392 	 8.6206 	 1.4359 	 62.7238 	 1.8058 	 57.3078 	 19.8049 	 5.4159 	 2.5200
  0.4000 	 1.5650 	 10.1419 	 8.6194 	 1.4326 	 62.6342 	 1.8045 	 57.3849 	 19.1278 	 5.2494 	 2.5200
  0.4000 	 1.5700 	 10.1447 	 8.6182 	 1.4293 	 62.5375 	 1.8032 	 57.4616 	 18.4306 	 5.0759 	 2.5200
  0.4000 	 1.5750 	 10.1474 	 8.6171 	 1.4261 	 62.4327 	 1.8019 	 57.5378 	 17.7109 	 4.8949 	 2.5200
  0.4000 	 1.5800 	 10.1501 	 8.6159 	 1.4229 	 62.3191 	 1.8007 	 57.6137 	 16.9658 	 4.7054 	 2.5200
  0.4000 	 1.5850 	 10.1527 	 8.6148 	 1.4197 	 62.1956 	 1.7994 	 57.6893 	 16.1918 	 4.5063 	 2.5200
  0.4000 	 1.5900 	 10.1554 	 8.6136 	 1.4165 	 62.0609 	 1.7981 	 57.7645 	 15.3844 	 4.2965 	 2.5200
  0.4000 	 1.5950 	 10.1581 	 8.6125 	 1.4133 	 61.9133 	 1.7969 	 57.8393 	 14.5379 	 4.0741 	 2.5200
  0.4000 	 1.6000 	 10.1607 	 8.6114 	 1.4101 	 61.7507 	 1.7957 	 57.9137 	 13.6452 	 3.8370 	 2.5200
  0.4000 	 1.6050 	 10.1633 	 8.6103 	 1.4070 	 61.5701 	 1.7945 	 57.9878 	 12.6963 	 3.5824 	 2.5200
  0.4000 	 1.6100 	 10.1659 	 8.6092 	 1.4039 	 61.3676 	 1.7932 	 58.0615 	 11.6775 	 3.3061 	 2.5200
  0.4000 	 1.6150 	 10.1685 	 8.6081 	 1.4008 	 61.1371 	 1.7920 	 58.1348 	 10.5686 	 3.0023 	 2.5200
  0.4000 	 1.6200 	 10.1711 	 8.6070 	 1.3977 	 60.8692 	 1.7909 	 58.2078 	 9.3373 	 2.6614 	 2.5200
  0.4000 	 1.6250 	 10.1736 	 8.6059 	 1.3946 	 60.5474 	 1.7897 	 58.2805 	 7.9269 	 2.2670 	 2.5200
  0.4000 	 1.6300 	 10.1761 	 8.6048 	 1.3915 	 60.1365 	 1.7885 	 58.3528 	 6.2165 	 1.7837 	 2.5200
  0.4000 	 1.4100 	 10.0438 	 8.6787 	 1.5486 	 63.4087 	 1.8559 	 54.7472 	 35.6632 	 8.6615 	 2.5300
  0.4000 	 1.4150 	 10.0472 	 8.6772 	 1.5446 	 63.4227 	 1.8541 	 54.8370 	 35.2032 	 8.5857 	 2.5300
  0.4000 	 1.4200 	 10.0505 	 8.6757 	 1.5407 	 63.4346 	 1.8524 	 54.9264 	 34.7405 	 8.5082 	 2.5300
  0.4000 	 1.4250 	 10.0539 	 8.6743 	 1.5368 	 63.4443 	 1.8507 	 55.0153 	 34.2751 	 8.4290 	 2.5300
  0.4000 	 1.4300 	 10.0572 	 8.6729 	 1.5329 	 63.4518 	 1.8490 	 55.1037 	 33.8066 	 8.3481 	 2.5300
  0.4000 	 1.4350 	 10.0605 	 8.6715 	 1.5290 	 63.4571 	 1.8474 	 55.1917 	 33.3351 	 8.2654 	 2.5300
  0.4000 	 1.4400 	 10.0637 	 8.6700 	 1.5252 	 63.4601 	 1.8457 	 55.2793 	 32.8602 	 8.1809 	 2.5300
  0.4000 	 1.4450 	 10.0670 	 8.6686 	 1.5214 	 63.4608 	 1.8441 	 55.3663 	 32.3819 	 8.0945 	 2.5300
  0.4000 	 1.4500 	 10.0702 	 8.6673 	 1.5176 	 63.4591 	 1.8424 	 55.4530 	 31.8999 	 8.0061 	 2.5300
  0.4000 	 1.4550 	 10.0734 	 8.6659 	 1.5139 	 63.4550 	 1.8408 	 55.5392 	 31.4140 	 7.9158 	 2.5300
  0.4000 	 1.4600 	 10.0766 	 8.6645 	 1.5101 	 63.4483 	 1.8392 	 55.6249 	 30.9241 	 7.8234 	 2.5300
  0.4000 	 1.4650 	 10.0797 	 8.6632 	 1.5064 	 63.4391 	 1.8376 	 55.7102 	 30.4298 	 7.7289 	 2.5300
  0.4000 	 1.4700 	 10.0828 	 8.6618 	 1.5027 	 63.4272 	 1.8361 	 55.7951 	 29.9310 	 7.6321 	 2.5300
  0.4000 	 1.4750 	 10.0860 	 8.6605 	 1.4991 	 63.4127 	 1.8345 	 55.8795 	 29.4273 	 7.5331 	 2.5300
  0.4000 	 1.4800 	 10.0890 	 8.6591 	 1.4954 	 63.3953 	 1.8330 	 55.9635 	 28.9185 	 7.4317 	 2.5300
  0.4000 	 1.4850 	 10.0921 	 8.6578 	 1.4918 	 63.3750 	 1.8315 	 56.0471 	 28.4042 	 7.3279 	 2.5300
  0.4000 	 1.4900 	 10.0952 	 8.6565 	 1.4882 	 63.3517 	 1.8300 	 56.1303 	 27.8841 	 7.2214 	 2.5300
  0.4000 	 1.4950 	 10.0982 	 8.6552 	 1.4846 	 63.3253 	 1.8285 	 56.2130 	 27.3579 	 7.1123 	 2.5300
  0.4000 	 1.5000 	 10.1012 	 8.6539 	 1.4811 	 63.2958 	 1.8270 	 56.2953 	 26.8252 	 7.0004 	 2.5300
  0.4000 	 1.5050 	 10.1042 	 8.6526 	 1.4775 	 63.2628 	 1.8255 	 56.3772 	 26.2854 	 6.8856 	 2.5300
  0.4000 	 1.5100 	 10.1071 	 8.6514 	 1.4740 	 63.2264 	 1.8241 	 56.4587 	 25.7382 	 6.7677 	 2.5300
  0.4000 	 1.5150 	 10.1101 	 8.6501 	 1.4705 	 63.1864 	 1.8226 	 56.5398 	 25.1831 	 6.6466 	 2.5300
  0.4000 	 1.5200 	 10.1130 	 8.6489 	 1.4671 	 63.1425 	 1.8212 	 56.6205 	 24.6193 	 6.5220 	 2.5300
  0.4000 	 1.5250 	 10.1159 	 8.6476 	 1.4636 	 63.0946 	 1.8198 	 56.7008 	 24.0463 	 6.3939 	 2.5300
  0.4000 	 1.5300 	 10.1188 	 8.6464 	 1.4602 	 63.0425 	 1.8184 	 56.7806 	 23.4635 	 6.2619 	 2.5300
  0.4000 	 1.5350 	 10.1217 	 8.6451 	 1.4568 	 62.9860 	 1.8170 	 56.8601 	 22.8699 	 6.1259 	 2.5300
  0.4000 	 1.5400 	 10.1245 	 8.6439 	 1.4534 	 62.9248 	 1.8156 	 56.9392 	 22.2646 	 5.9856 	 2.5300
  0.4000 	 1.5450 	 10.1274 	 8.6427 	 1.4500 	 62.8585 	 1.8142 	 57.0178 	 21.6468 	 5.8406 	 2.5300
  0.4000 	 1.5500 	 10.1302 	 8.6415 	 1.4466 	 62.7868 	 1.8129 	 57.0961 	 21.0151 	 5.6907 	 2.5300
  0.4000 	 1.5550 	 10.1330 	 8.6403 	 1.4433 	 62.7094 	 1.8116 	 57.1740 	 20.3683 	 5.5354 	 2.5300
  0.4000 	 1.5600 	 10.1358 	 8.6391 	 1.4400 	 62.6258 	 1.8102 	 57.2515 	 19.7049 	 5.3743 	 2.5300
  0.4000 	 1.5650 	 10.1385 	 8.6380 	 1.4367 	 62.5354 	 1.8089 	 57.3287 	 19.0231 	 5.2068 	 2.5300
  0.4000 	 1.5700 	 10.1413 	 8.6368 	 1.4334 	 62.4377 	 1.8076 	 57.4054 	 18.3207 	 5.0323 	 2.5300
  0.4000 	 1.5750 	 10.1440 	 8.6356 	 1.4301 	 62.3318 	 1.8063 	 57.4818 	 17.5952 	 4.8500 	 2.5300
  0.4000 	 1.5800 	 10.1467 	 8.6345 	 1.4269 	 62.2169 	 1.8050 	 57.5578 	 16.8437 	 4.6592 	 2.5300
  0.4000 	 1.5850 	 10.1494 	 8.6333 	 1.4237 	 62.0919 	 1.8038 	 57.6334 	 16.0624 	 4.4585 	 2.5300
  0.4000 	 1.5900 	 10.1521 	 8.6322 	 1.4205 	 61.9554 	 1.8025 	 57.7087 	 15.2467 	 4.2468 	 2.5300
  0.4000 	 1.5950 	 10.1547 	 8.6310 	 1.4173 	 61.8057 	 1.8012 	 57.7835 	 14.3906 	 4.0222 	 2.5300
  0.4000 	 1.6000 	 10.1574 	 8.6299 	 1.4141 	 61.6405 	 1.8000 	 57.8581 	 13.4865 	 3.7824 	 2.5300
  0.4000 	 1.6050 	 10.1600 	 8.6288 	 1.4110 	 61.4567 	 1.7988 	 57.9322 	 12.5239 	 3.5245 	 2.5300
  0.4000 	 1.6100 	 10.1626 	 8.6277 	 1.4078 	 61.2499 	 1.7976 	 58.0060 	 11.4880 	 3.2439 	 2.5300
  0.4000 	 1.6150 	 10.1652 	 8.6266 	 1.4047 	 61.0138 	 1.7964 	 58.0794 	 10.3568 	 2.9344 	 2.5300
  0.4000 	 1.6200 	 10.1678 	 8.6255 	 1.4016 	 60.7380 	 1.7952 	 58.1525 	 9.0946 	 2.5854 	 2.5300
  0.4000 	 1.6250 	 10.1703 	 8.6244 	 1.3985 	 60.4035 	 1.7940 	 58.2253 	 7.6368 	 2.1783 	 2.5300
  0.4000 	 1.6300 	 10.1729 	 8.6233 	 1.3955 	 59.9685 	 1.7928 	 58.2976 	 5.8384 	 1.6709 	 2.5300
  0.4000 	 1.4100 	 10.0400 	 8.6975 	 1.5530 	 63.3178 	 1.8605 	 54.6885 	 35.6284 	 8.6293 	 2.5400
  0.4000 	 1.4150 	 10.0434 	 8.6960 	 1.5490 	 63.3318 	 1.8588 	 54.7784 	 35.1672 	 8.5534 	 2.5400
  0.4000 	 1.4200 	 10.0468 	 8.6945 	 1.5451 	 63.3437 	 1.8570 	 54.8679 	 34.7033 	 8.4758 	 2.5400
  0.4000 	 1.4250 	 10.0501 	 8.6931 	 1.5412 	 63.3534 	 1.8553 	 54.9569 	 34.2366 	 8.3965 	 2.5400
  0.4000 	 1.4300 	 10.0535 	 8.6916 	 1.5373 	 63.3609 	 1.8536 	 55.0454 	 33.7669 	 8.3155 	 2.5400
  0.4000 	 1.4350 	 10.0568 	 8.6902 	 1.5334 	 63.3662 	 1.8519 	 55.1335 	 33.2940 	 8.2327 	 2.5400
  0.4000 	 1.4400 	 10.0600 	 8.6888 	 1.5296 	 63.3691 	 1.8503 	 55.2211 	 32.8177 	 8.1481 	 2.5400
  0.4000 	 1.4450 	 10.0633 	 8.6874 	 1.5257 	 63.3698 	 1.8486 	 55.3082 	 32.3380 	 8.0615 	 2.5400
  0.4000 	 1.4500 	 10.0665 	 8.6860 	 1.5220 	 63.3680 	 1.8470 	 55.3950 	 31.8545 	 7.9730 	 2.5400
  0.4000 	 1.4550 	 10.0697 	 8.6846 	 1.5182 	 63.3638 	 1.8454 	 55.4812 	 31.3672 	 7.8826 	 2.5400
  0.4000 	 1.4600 	 10.0729 	 8.6832 	 1.5144 	 63.3571 	 1.8438 	 55.5671 	 30.8756 	 7.7900 	 2.5400
  0.4000 	 1.4650 	 10.0761 	 8.6819 	 1.5107 	 63.3477 	 1.8422 	 55.6525 	 30.3797 	 7.6953 	 2.5400
  0.4000 	 1.4700 	 10.0792 	 8.6805 	 1.5070 	 63.3358 	 1.8406 	 55.7374 	 29.8792 	 7.5984 	 2.5400
  0.4000 	 1.4750 	 10.0823 	 8.6792 	 1.5033 	 63.3211 	 1.8390 	 55.8219 	 29.3738 	 7.4991 	 2.5400
  0.4000 	 1.4800 	 10.0854 	 8.6778 	 1.4997 	 63.3036 	 1.8375 	 55.9060 	 28.8632 	 7.3975 	 2.5400
  0.4000 	 1.4850 	 10.0885 	 8.6765 	 1.4960 	 63.2831 	 1.8360 	 55.9897 	 28.3470 	 7.2934 	 2.5400
  0.4000 	 1.4900 	 10.0916 	 8.6752 	 1.4924 	 63.2597 	 1.8345 	 56.0729 	 27.8250 	 7.1868 	 2.5400
  0.4000 	 1.4950 	 10.0946 	 8.6739 	 1.4888 	 63.2332 	 1.8330 	 56.1558 	 27.2968 	 7.0774 	 2.5400
  0.4000 	 1.5000 	 10.0976 	 8.6726 	 1.4853 	 63.2034 	 1.8315 	 56.2382 	 26.7619 	 6.9652 	 2.5400
  0.4000 	 1.5050 	 10.1006 	 8.6713 	 1.4817 	 63.1702 	 1.8300 	 56.3202 	 26.2200 	 6.8501 	 2.5400
  0.4000 	 1.5100 	 10.1036 	 8.6700 	 1.4782 	 63.1335 	 1.8285 	 56.4017 	 25.6705 	 6.7318 	 2.5400
  0.4000 	 1.5150 	 10.1066 	 8.6687 	 1.4747 	 63.0932 	 1.8271 	 56.4829 	 25.1128 	 6.6103 	 2.5400
  0.4000 	 1.5200 	 10.1095 	 8.6675 	 1.4712 	 63.0490 	 1.8256 	 56.5637 	 24.5465 	 6.4854 	 2.5400
  0.4000 	 1.5250 	 10.1124 	 8.6662 	 1.4677 	 63.0008 	 1.8242 	 56.6440 	 23.9708 	 6.3568 	 2.5400
  0.4000 	 1.5300 	 10.1153 	 8.6650 	 1.4643 	 62.9484 	 1.8228 	 56.7240 	 23.3851 	 6.2244 	 2.5400
  0.4000 	 1.5350 	 10.1182 	 8.6637 	 1.4609 	 62.8914 	 1.8214 	 56.8035 	 22.7884 	 6.0879 	 2.5400
  0.4000 	 1.5400 	 10.1211 	 8.6625 	 1.4575 	 62.8297 	 1.8200 	 56.8827 	 22.1799 	 5.9470 	 2.5400
  0.4000 	 1.5450 	 10.1239 	 8.6613 	 1.4541 	 62.7629 	 1.8187 	 56.9614 	 21.5586 	 5.8014 	 2.5400
  0.4000 	 1.5500 	 10.1267 	 8.6601 	 1.4507 	 62.6906 	 1.8173 	 57.0398 	 20.9232 	 5.6508 	 2.5400
  0.4000 	 1.5550 	 10.1295 	 8.6589 	 1.4474 	 62.6125 	 1.8160 	 57.1178 	 20.2724 	 5.4947 	 2.5400
  0.4000 	 1.5600 	 10.1323 	 8.6577 	 1.4441 	 62.5281 	 1.8146 	 57.1954 	 19.6045 	 5.3328 	 2.5400
  0.4000 	 1.5650 	 10.1351 	 8.6565 	 1.4407 	 62.4369 	 1.8133 	 57.2726 	 18.9179 	 5.1643 	 2.5400
  0.4000 	 1.5700 	 10.1379 	 8.6553 	 1.4375 	 62.3382 	 1.8120 	 57.3494 	 18.2102 	 4.9887 	 2.5400
  0.4000 	 1.5750 	 10.1406 	 8.6541 	 1.4342 	 62.2312 	 1.8107 	 57.4259 	 17.4789 	 4.8053 	 2.5400
  0.4000 	 1.5800 	 10.1433 	 8.6530 	 1.4309 	 62.1150 	 1.8094 	 57.5020 	 16.7209 	 4.6130 	 2.5400
  0.4000 	 1.5850 	 10.1460 	 8.6518 	 1.4277 	 61.9884 	 1.8081 	 57.5777 	 15.9322 	 4.4108 	 2.5400
  0.4000 	 1.5900 	 10.1487 	 8.6507 	 1.4245 	 61.8501 	 1.8068 	 57.6530 	 15.1080 	 4.1971 	 2.5400
  0.4000 	 1.5950 	 10.1514 	 8.6495 	 1.4213 	 61.6982 	 1.8056 	 57.7280 	 14.2421 	 3.9702 	 2.5400
  0.4000 	 1.6000 	 10.1540 	 8.6484 	 1.4181 	 61.5303 	 1.8043 	 57.8026 	 13.3263 	 3.7277 	 2.5400
  0.4000 	 1.6050 	 10.1567 	 8.6473 	 1.4150 	 61.3431 	 1.8031 	 57.8768 	 12.3494 	 3.4663 	 2.5400
  0.4000 	 1.6100 	 10.1593 	 8.6462 	 1.4118 	 61.1320 	 1.8019 	 57.9507 	 11.2956 	 3.1813 	 2.5400
  0.4000 	 1.6150 	 10.1619 	 8.6451 	 1.4087 	 60.8899 	 1.8007 	 58.0242 	 10.1409 	 2.8657 	 2.5400
  0.4000 	 1.6200 	 10.1645 	 8.6440 	 1.4056 	 60.6055 	 1.7995 	 58.0974 	 8.8456 	 2.5081 	 2.5400
  0.4000 	 1.6250 	 10.1670 	 8.6429 	 1.4025 	 60.2571 	 1.7983 	 58.1702 	 7.3356 	 2.0869 	 2.5400
  0.4000 	 1.6300 	 10.1696 	 8.6418 	 1.3994 	 59.7939 	 1.7971 	 58.2426 	 5.4347 	 1.5513 	 2.5400
  0.4000 	 1.4100 	 10.0363 	 8.7162 	 1.5574 	 63.2273 	 1.8652 	 54.6300 	 35.5936 	 8.5973 	 2.5500
  0.4000 	 1.4150 	 10.0397 	 8.7148 	 1.5534 	 63.2413 	 1.8634 	 54.7200 	 35.1312 	 8.5213 	 2.5500
  0.4000 	 1.4200 	 10.0430 	 8.7133 	 1.5495 	 63.2531 	 1.8617 	 54.8095 	 34.6661 	 8.4436 	 2.5500
  0.4000 	 1.4250 	 10.0464 	 8.7118 	 1.5455 	 63.2628 	 1.8599 	 54.8986 	 34.1981 	 8.3643 	 2.5500
  0.4000 	 1.4300 	 10.0497 	 8.7104 	 1.5416 	 63.2703 	 1.8582 	 54.9872 	 33.7271 	 8.2831 	 2.5500
  0.4000 	 1.4350 	 10.0530 	 8.7089 	 1.5378 	 63.2755 	 1.8565 	 55.0753 	 33.2528 	 8.2002 	 2.5500
  0.4000 	 1.4400 	 10.0563 	 8.7075 	 1.5339 	 63.2785 	 1.8549 	 55.1630 	 32.7752 	 8.1154 	 2.5500
  0.4000 	 1.4450 	 10.0596 	 8.7061 	 1.5301 	 63.2791 	 1.8532 	 55.2503 	 32.2940 	 8.0288 	 2.5500
  0.4000 	 1.4500 	 10.0628 	 8.7047 	 1.5263 	 63.2772 	 1.8516 	 55.3371 	 31.8091 	 7.9401 	 2.5500
  0.4000 	 1.4550 	 10.0661 	 8.7033 	 1.5225 	 63.2730 	 1.8499 	 55.4235 	 31.3202 	 7.8495 	 2.5500
  0.4000 	 1.4600 	 10.0693 	 8.7019 	 1.5187 	 63.2662 	 1.8483 	 55.5094 	 30.8271 	 7.7568 	 2.5500
  0.4000 	 1.4650 	 10.0724 	 8.7005 	 1.5150 	 63.2567 	 1.8467 	 55.5948 	 30.3296 	 7.6619 	 2.5500
  0.4000 	 1.4700 	 10.0756 	 8.6992 	 1.5113 	 63.2447 	 1.8451 	 55.6799 	 29.8274 	 7.5648 	 2.5500
  0.4000 	 1.4750 	 10.0787 	 8.6978 	 1.5076 	 63.2299 	 1.8436 	 55.7645 	 29.3203 	 7.4654 	 2.5500
  0.4000 	 1.4800 	 10.0818 	 8.6965 	 1.5039 	 63.2122 	 1.8420 	 55.8487 	 28.8079 	 7.3635 	 2.5500
  0.4000 	 1.4850 	 10.0849 	 8.6951 	 1.5003 	 63.1916 	 1.8405 	 55.9324 	 28.2898 	 7.2592 	 2.5500
  0.4000 	 1.4900 	 10.0880 	 8.6938 	 1.4967 	 63.1680 	 1.8390 	 56.0158 	 27.7659 	 7.1523 	 2.5500
  0.4000 	 1.4950 	 10.0910 	 8.6925 	 1.4931 	 63.1413 	 1.8374 	 56.0987 	 27.2356 	 7.0426 	 2.5500
  0.4000 	 1.5000 	 10.0941 	 8.6912 	 1.4895 	 63.1113 	 1.8359 	 56.1811 	 26.6986 	 6.9302 	 2.5500
  0.4000 	 1.5050 	 10.0971 	 8.6899 	 1.4859 	 63.0779 	 1.8345 	 56.2632 	 26.1545 	 6.8147 	 2.5500
  0.4000 	 1.5100 	 10.1001 	 8.6886 	 1.4824 	 63.0410 	 1.8330 	 56.3449 	 25.6026 	 6.6961 	 2.5500
  0.4000 	 1.5150 	 10.1030 	 8.6873 	 1.4789 	 63.0004 	 1.8315 	 56.4261 	 25.0425 	 6.5743 	 2.5500
  0.4000 	 1.5200 	 10.1060 	 8.6861 	 1.4754 	 62.9559 	 1.8301 	 56.5070 	 24.4736 	 6.4489 	 2.5500
  0.4000 	 1.5250 	 10.1089 	 8.6848 	 1.4719 	 62.9073 	 1.8287 	 56.5874 	 23.8952 	 6.3199 	 2.5500
  0.4000 	 1.5300 	 10.1118 	 8.6835 	 1.4684 	 62.8545 	 1.8272 	 56.6674 	 23.3065 	 6.1870 	 2.5500
  0.4000 	 1.5350 	 10.1147 	 8.6823 	 1.4650 	 62.7971 	 1.8258 	 56.7471 	 22.7068 	 6.0500 	 2.5500
  0.4000 	 1.5400 	 10.1176 	 8.6811 	 1.4616 	 62.7349 	 1.8244 	 56.8263 	 22.0950 	 5.9086 	 2.5500
  0.4000 	 1.5450 	 10.1205 	 8.6798 	 1.4582 	 62.6675 	 1.8231 	 56.9052 	 21.4702 	 5.7624 	 2.5500
  0.4000 	 1.5500 	 10.1233 	 8.6786 	 1.4548 	 62.5947 	 1.8217 	 56.9836 	 20.8310 	 5.6111 	 2.5500
  0.4000 	 1.5550 	 10.1261 	 8.6774 	 1.4515 	 62.5159 	 1.8203 	 57.0617 	 20.1761 	 5.4542 	 2.5500
  0.4000 	 1.5600 	 10.1289 	 8.6762 	 1.4481 	 62.4308 	 1.8190 	 57.1394 	 19.5038 	 5.2914 	 2.5500
  0.4000 	 1.5650 	 10.1317 	 8.6750 	 1.4448 	 62.3387 	 1.8177 	 57.2167 	 18.8123 	 5.1220 	 2.5500
  0.4000 	 1.5700 	 10.1345 	 8.6738 	 1.4415 	 62.2389 	 1.8164 	 57.2936 	 18.0992 	 4.9453 	 2.5500
  0.4000 	 1.5750 	 10.1372 	 8.6726 	 1.4382 	 62.1308 	 1.8150 	 57.3701 	 17.3620 	 4.7606 	 2.5500
  0.4000 	 1.5800 	 10.1399 	 8.6715 	 1.4350 	 62.0132 	 1.8137 	 57.4463 	 16.5973 	 4.5669 	 2.5500
  0.4000 	 1.5850 	 10.1427 	 8.6703 	 1.4317 	 61.8851 	 1.8125 	 57.5221 	 15.8010 	 4.3630 	 2.5500
  0.4000 	 1.5900 	 10.1454 	 8.6692 	 1.4285 	 61.7449 	 1.8112 	 57.5975 	 14.9681 	 4.1474 	 2.5500
  0.4000 	 1.5950 	 10.1480 	 8.6680 	 1.4253 	 61.5907 	 1.8099 	 57.6726 	 14.0921 	 3.9182 	 2.5500
  0.4000 	 1.6000 	 10.1507 	 8.6669 	 1.4221 	 61.4200 	 1.8087 	 57.7472 	 13.1643 	 3.6728 	 2.5500
  0.4000 	 1.6050 	 10.1533 	 8.6657 	 1.4189 	 61.2293 	 1.8074 	 57.8216 	 12.1727 	 3.4077 	 2.5500
  0.4000 	 1.6100 	 10.1560 	 8.6646 	 1.4158 	 61.0136 	 1.8062 	 57.8955 	 11.1002 	 3.1181 	 2.5500
  0.4000 	 1.6150 	 10.1586 	 8.6635 	 1.4126 	 60.7653 	 1.8050 	 57.9691 	 9.9206 	 2.7962 	 2.5500
  0.4000 	 1.6200 	 10.1612 	 8.6624 	 1.4095 	 60.4716 	 1.8038 	 58.0424 	 8.5898 	 2.4292 	 2.5500
  0.4000 	 1.6250 	 10.1638 	 8.6613 	 1.4064 	 60.1078 	 1.8026 	 58.1153 	 7.0220 	 1.9925 	 2.5500
  0.4000 	 1.4100 	 10.0325 	 8.7350 	 1.5618 	 63.1371 	 1.8698 	 54.5716 	 35.5589 	 8.5655 	 2.5600
  0.4000 	 1.4150 	 10.0359 	 8.7335 	 1.5578 	 63.1511 	 1.8680 	 54.6617 	 35.0952 	 8.4894 	 2.5600
  0.4000 	 1.4200 	 10.0393 	 8.7320 	 1.5538 	 63.1629 	 1.8663 	 54.7513 	 34.6289 	 8.4117 	 2.5600
  0.4000 	 1.4250 	 10.0427 	 8.7306 	 1.5499 	 63.1726 	 1.8645 	 54.8404 	 34.1596 	 8.3322 	 2.5600
  0.4000 	 1.4300 	 10.0460 	 8.7291 	 1.5460 	 63.1801 	 1.8628 	 54.9291 	 33.6872 	 8.2509 	 2.5600
  0.4000 	 1.4350 	 10.0493 	 8.7277 	 1.5421 	 63.1853 	 1.8611 	 55.0174 	 33.2116 	 8.1679 	 2.5600
  0.4000 	 1.4400 	 10.0526 	 8.7262 	 1.5382 	 63.1882 	 1.8594 	 55.1052 	 32.7326 	 8.0830 	 2.5600
  0.4000 	 1.4450 	 10.0559 	 8.7248 	 1.5344 	 63.1887 	 1.8578 	 55.1925 	 32.2501 	 7.9962 	 2.5600
  0.4000 	 1.4500 	 10.0592 	 8.7234 	 1.5306 	 63.1868 	 1.8561 	 55.2794 	 31.7637 	 7.9074 	 2.5600
  0.4000 	 1.4550 	 10.0624 	 8.7220 	 1.5268 	 63.1825 	 1.8545 	 55.3658 	 31.2733 	 7.8166 	 2.5600
  0.4000 	 1.4600 	 10.0656 	 8.7206 	 1.5230 	 63.1756 	 1.8529 	 55.4518 	 30.7786 	 7.7238 	 2.5600
  0.4000 	 1.4650 	 10.0688 	 8.7192 	 1.5193 	 63.1661 	 1.8513 	 55.5374 	 30.2795 	 7.6287 	 2.5600
  0.4000 	 1.4700 	 10.0720 	 8.7178 	 1.5155 	 63.1539 	 1.8497 	 55.6225 	 29.7756 	 7.5314 	 2.5600
  0.4000 	 1.4750 	 10.0751 	 8.7165 	 1.5118 	 63.1390 	 1.8481 	 55.7072 	 29.2667 	 7.4318 	 2.5600
  0.4000 	 1.4800 	 10.0782 	 8.7151 	 1.5082 	 63.1212 	 1.8465 	 55.7915 	 28.7525 	 7.3297 	 2.5600
  0.4000 	 1.4850 	 10.0813 	 8.7138 	 1.5045 	 63.1005 	 1.8450 	 55.8753 	 28.2326 	 7.2252 	 2.5600
  0.4000 	 1.4900 	 10.0844 	 8.7124 	 1.5009 	 63.0767 	 1.8434 	 55.9587 	 27.7067 	 7.1180 	 2.5600
  0.4000 	 1.4950 	 10.0875 	 8.7111 	 1.4973 	 63.0498 	 1.8419 	 56.0417 	 27.1744 	 7.0081 	 2.5600
  0.4000 	 1.5000 	 10.0905 	 8.7098 	 1.4937 	 63.0196 	 1.8404 	 56.1243 	 26.6352 	 6.8953 	 2.5600
  0.4000 	 1.5050 	 10.0935 	 8.7085 	 1.4901 	 62.9860 	 1.8389 	 56.2064 	 26.0888 	 6.7795 	 2.5600
  0.4000 	 1.5100 	 10.0965 	 8.7072 	 1.4866 	 62.9488 	 1.8374 	 56.2882 	 25.5346 	 6.6606 	 2.5600
  0.4000 	 1.5150 	 10.0995 	 8.7059 	 1.4830 	 62.9079 	 1.8360 	 56.3695 	 24.9721 	 6.5384 	 2.5600
  0.4000 	 1.5200 	 10.1025 	 8.7046 	 1.4795 	 62.8631 	 1.8345 	 56.4505 	 24.4006 	 6.4127 	 2.5600
  0.4000 	 1.5250 	 10.1054 	 8.7033 	 1.4760 	 62.8142 	 1.8331 	 56.5310 	 23.8194 	 6.2832 	 2.5600
  0.4000 	 1.5300 	 10.1084 	 8.7021 	 1.4726 	 62.7610 	 1.8317 	 56.6111 	 23.2278 	 6.1499 	 2.5600
  0.4000 	 1.5350 	 10.1113 	 8.7008 	 1.4691 	 62.7031 	 1.8303 	 56.6908 	 22.6250 	 6.0123 	 2.5600
  0.4000 	 1.5400 	 10.1141 	 8.6996 	 1.4657 	 62.6404 	 1.8289 	 56.7701 	 22.0099 	 5.8703 	 2.5600
  0.4000 	 1.5450 	 10.1170 	 8.6984 	 1.4623 	 62.5725 	 1.8275 	 56.8491 	 21.3815 	 5.7235 	 2.5600
  0.4000 	 1.5500 	 10.1199 	 8.6971 	 1.4589 	 62.4991 	 1.8261 	 56.9276 	 20.7385 	 5.5715 	 2.5600
  0.4000 	 1.5550 	 10.1227 	 8.6959 	 1.4555 	 62.4196 	 1.8247 	 57.0058 	 20.0794 	 5.4138 	 2.5600
  0.4000 	 1.5600 	 10.1255 	 8.6947 	 1.4522 	 62.3337 	 1.8234 	 57.0835 	 19.4026 	 5.2501 	 2.5600
  0.4000 	 1.5650 	 10.1283 	 8.6935 	 1.4489 	 62.2407 	 1.8220 	 57.1609 	 18.7062 	 5.0798 	 2.5600
  0.4000 	 1.5700 	 10.1311 	 8.6923 	 1.4456 	 62.1399 	 1.8207 	 57.2379 	 17.9877 	 4.9020 	 2.5600
  0.4000 	 1.5750 	 10.1338 	 8.6911 	 1.4423 	 62.0306 	 1.8194 	 57.3145 	 17.2444 	 4.7160 	 2.5600
  0.4000 	 1.5800 	 10.1366 	 8.6899 	 1.4390 	 61.9116 	 1.8181 	 57.3908 	 16.4729 	 4.5209 	 2.5600
  0.4000 	 1.5850 	 10.1393 	 8.6888 	 1.4357 	 61.7819 	 1.8168 	 57.4667 	 15.6690 	 4.3153 	 2.5600
  0.4000 	 1.5900 	 10.1420 	 8.6876 	 1.4325 	 61.6398 	 1.8155 	 57.5422 	 14.8272 	 4.0976 	 2.5600
  0.4000 	 1.5950 	 10.1447 	 8.6865 	 1.4293 	 61.4833 	 1.8143 	 57.6173 	 13.9408 	 3.8660 	 2.5600
  0.4000 	 1.6000 	 10.1474 	 8.6853 	 1.4261 	 61.3097 	 1.8130 	 57.6921 	 13.0005 	 3.6177 	 2.5600
  0.4000 	 1.6050 	 10.1500 	 8.6842 	 1.4229 	 61.1154 	 1.8118 	 57.7665 	 11.9936 	 3.3489 	 2.5600
  0.4000 	 1.6100 	 10.1527 	 8.6830 	 1.4198 	 60.8949 	 1.8105 	 57.8405 	 10.9016 	 3.0544 	 2.5600
  0.4000 	 1.6150 	 10.1553 	 8.6819 	 1.4166 	 60.6399 	 1.8093 	 57.9142 	 9.6957 	 2.7257 	 2.5600
  0.4000 	 1.6200 	 10.1579 	 8.6808 	 1.4135 	 60.3362 	 1.8081 	 57.9875 	 8.3265 	 2.3487 	 2.5600
  0.4000 	 1.6250 	 10.1605 	 8.6797 	 1.4104 	 59.9551 	 1.8069 	 58.0605 	 6.6943 	 1.8946 	 2.5600
  0.4000 	 1.4050 	 10.0252 	 8.7552 	 1.5702 	 63.0312 	 1.8762 	 54.4227 	 35.9862 	 8.6085 	 2.5700
  0.4000 	 1.4100 	 10.0287 	 8.7537 	 1.5662 	 63.0473 	 1.8744 	 54.5134 	 35.5240 	 8.5339 	 2.5700
  0.4000 	 1.4150 	 10.0321 	 8.7522 	 1.5622 	 63.0613 	 1.8726 	 54.6035 	 35.0592 	 8.4577 	 2.5700
  0.4000 	 1.4200 	 10.0355 	 8.7507 	 1.5582 	 63.0731 	 1.8709 	 54.6932 	 34.5916 	 8.3799 	 2.5700
  0.4000 	 1.4250 	 10.0389 	 8.7493 	 1.5543 	 63.0828 	 1.8691 	 54.7825 	 34.1210 	 8.3003 	 2.5700
  0.4000 	 1.4300 	 10.0423 	 8.7478 	 1.5504 	 63.0902 	 1.8674 	 54.8713 	 33.6474 	 8.2189 	 2.5700
  0.4000 	 1.4350 	 10.0456 	 8.7463 	 1.5464 	 63.0954 	 1.8657 	 54.9596 	 33.1705 	 8.1358 	 2.5700
  0.4000 	 1.4400 	 10.0489 	 8.7449 	 1.5426 	 63.0982 	 1.8640 	 55.0475 	 32.6901 	 8.0508 	 2.5700
  0.4000 	 1.4450 	 10.0522 	 8.7435 	 1.5387 	 63.0987 	 1.8623 	 55.1349 	 32.2060 	 7.9638 	 2.5700
  0.4000 	 1.4500 	 10.0555 	 8.7420 	 1.5349 	 63.0968 	 1.8607 	 55.2218 	 31.7182 	 7.8749 	 2.5700
  0.4000 	 1.4550 	 10.0587 	 8.7406 	 1.5311 	 63.0924 	 1.8590 	 55.3084 	 31.2263 	 7.7840 	 2.5700
  0.4000 	 1.4600 	 10.0620 	 8.7392 	 1.5273 	 63.0854 	 1.8574 	 55.3945 	 30.7300 	 7.6909 	 2.5700
  0.4000 	 1.4650 	 10.0652 	 8.7378 	 1.5235 	 63.0758 	 1.8558 	 55.4801 	 30.2293 	 7.5957 	 2.5700
  0.4000 	 1.4700 	 10.0683 	 8.7364 	 1.5198 	 63.0635 	 1.8542 	 55.5653 	 29.7237 	 7.4982 	 2.5700
  0.4000 	 1.4750 	 10.0715 	 8.7351 	 1.5161 	 63.0485 	 1.8526 	 55.6501 	 29.2131 	 7.3984 	 2.5700
  0.4000 	 1.4800 	 10.0746 	 8.7337 	 1.5124 	 63.0306 	 1.8510 	 55.7344 	 28.6970 	 7.2961 	 2.5700
  0.4000 	 1.4850 	 10.0778 	 8.7324 	 1.5087 	 63.0097 	 1.8495 	 55.8184 	 28.1753 	 7.1913 	 2.5700
  0.4000 	 1.4900 	 10.0808 	 8.7310 	 1.5051 	 62.9858 	 1.8479 	 55.9019 	 27.6474 	 7.0839 	 2.5700
  0.4000 	 1.4950 	 10.0839 	 8.7297 	 1.5015 	 62.9586 	 1.8464 	 55.9849 	 27.1130 	 6.9737 	 2.5700
  0.4000 	 1.5000 	 10.0870 	 8.7284 	 1.4979 	 62.9282 	 1.8449 	 56.0676 	 26.5718 	 6.8607 	 2.5700
  0.4000 	 1.5050 	 10.0900 	 8.7270 	 1.4943 	 62.8944 	 1.8434 	 56.1498 	 26.0231 	 6.7446 	 2.5700
  0.4000 	 1.5100 	 10.0930 	 8.7257 	 1.4907 	 62.8570 	 1.8419 	 56.2317 	 25.4666 	 6.6253 	 2.5700
  0.4000 	 1.5150 	 10.0960 	 8.7244 	 1.4872 	 62.8158 	 1.8404 	 56.3131 	 24.9015 	 6.5027 	 2.5700
  0.4000 	 1.5200 	 10.0990 	 8.7232 	 1.4837 	 62.7706 	 1.8390 	 56.3941 	 24.3274 	 6.3766 	 2.5700
  0.4000 	 1.5250 	 10.1019 	 8.7219 	 1.4802 	 62.7214 	 1.8375 	 56.4747 	 23.7435 	 6.2467 	 2.5700
  0.4000 	 1.5300 	 10.1049 	 8.7206 	 1.4767 	 62.6677 	 1.8361 	 56.5549 	 23.1489 	 6.1128 	 2.5700
  0.4000 	 1.5350 	 10.1078 	 8.7193 	 1.4732 	 62.6095 	 1.8347 	 56.6347 	 22.5430 	 5.9748 	 2.5700
  0.4000 	 1.5400 	 10.1107 	 8.7181 	 1.4698 	 62.5463 	 1.8333 	 56.7141 	 21.9245 	 5.8322 	 2.5700
  0.4000 	 1.5450 	 10.1136 	 8.7169 	 1.4664 	 62.4778 	 1.8319 	 56.7931 	 21.2925 	 5.6847 	 2.5700
  0.4000 	 1.5500 	 10.1164 	 8.7156 	 1.4630 	 62.4037 	 1.8305 	 56.8717 	 20.6457 	 5.5320 	 2.5700
  0.4000 	 1.5550 	 10.1193 	 8.7144 	 1.4596 	 62.3236 	 1.8291 	 56.9500 	 19.9824 	 5.3736 	 2.5700
  0.4000 	 1.5600 	 10.1221 	 8.7132 	 1.4563 	 62.2368 	 1.8278 	 57.0278 	 19.3011 	 5.2090 	 2.5700
  0.4000 	 1.5650 	 10.1249 	 8.7120 	 1.4529 	 62.1429 	 1.8264 	 57.1053 	 18.5997 	 5.0376 	 2.5700
  0.4000 	 1.5700 	 10.1277 	 8.7108 	 1.4496 	 62.0411 	 1.8251 	 57.1824 	 17.8757 	 4.8588 	 2.5700
  0.4000 	 1.5750 	 10.1305 	 8.7096 	 1.4463 	 61.9306 	 1.8238 	 57.2591 	 17.1262 	 4.6715 	 2.5700
  0.4000 	 1.5800 	 10.1332 	 8.7084 	 1.4430 	 61.8103 	 1.8225 	 57.3354 	 16.3478 	 4.4749 	 2.5700
  0.4000 	 1.5850 	 10.1359 	 8.7072 	 1.4398 	 61.6789 	 1.8212 	 57.4114 	 15.5360 	 4.2675 	 2.5700
  0.4000 	 1.5900 	 10.1387 	 8.7060 	 1.4365 	 61.5348 	 1.8199 	 57.4869 	 14.6852 	 4.0478 	 2.5700
  0.4000 	 1.5950 	 10.1414 	 8.7049 	 1.4333 	 61.3759 	 1.8186 	 57.5622 	 13.7881 	 3.8137 	 2.5700
  0.4000 	 1.6000 	 10.1440 	 8.7037 	 1.4301 	 61.1993 	 1.8173 	 57.6370 	 12.8349 	 3.5623 	 2.5700
  0.4000 	 1.6050 	 10.1467 	 8.7026 	 1.4269 	 61.0012 	 1.8161 	 57.7115 	 11.8121 	 3.2897 	 2.5700
  0.4000 	 1.6100 	 10.1494 	 8.7014 	 1.4237 	 60.7757 	 1.8148 	 57.7856 	 10.6997 	 2.9900 	 2.5700
  0.4000 	 1.6150 	 10.1520 	 8.7003 	 1.4206 	 60.5136 	 1.8136 	 57.8594 	 9.4658 	 2.6542 	 2.5700
  0.4000 	 1.6200 	 10.1546 	 8.6992 	 1.4174 	 60.1991 	 1.8124 	 57.9328 	 8.0550 	 2.2663 	 2.5700
  0.4000 	 1.6250 	 10.1572 	 8.6981 	 1.4143 	 59.7985 	 1.8112 	 58.0059 	 6.3502 	 1.7926 	 2.5700
  0.4000 	 1.4050 	 10.0214 	 8.7740 	 1.5747 	 62.9418 	 1.8808 	 54.3646 	 35.9526 	 8.5772 	 2.5800
  0.4000 	 1.4100 	 10.0249 	 8.7724 	 1.5706 	 62.9579 	 1.8790 	 54.4553 	 35.4892 	 8.5025 	 2.5800
  0.4000 	 1.4150 	 10.0284 	 8.7709 	 1.5666 	 62.9718 	 1.8773 	 54.5456 	 35.0232 	 8.4262 	 2.5800
  0.4000 	 1.4200 	 10.0318 	 8.7694 	 1.5626 	 62.9836 	 1.8755 	 54.6354 	 34.5543 	 8.3483 	 2.5800
  0.4000 	 1.4250 	 10.0352 	 8.7679 	 1.5586 	 62.9933 	 1.8737 	 54.7247 	 34.0825 	 8.2686 	 2.5800
  0.4000 	 1.4300 	 10.0386 	 8.7665 	 1.5547 	 63.0007 	 1.8720 	 54.8135 	 33.6075 	 8.1871 	 2.5800
  0.4000 	 1.4350 	 10.0419 	 8.7650 	 1.5508 	 63.0058 	 1.8703 	 54.9020 	 33.1292 	 8.1039 	 2.5800
  0.4000 	 1.4400 	 10.0452 	 8.7635 	 1.5469 	 63.0086 	 1.8686 	 54.9899 	 32.6475 	 8.0187 	 2.5800
  0.4000 	 1.4450 	 10.0485 	 8.7621 	 1.5430 	 63.0091 	 1.8669 	 55.0774 	 32.1620 	 7.9317 	 2.5800
  0.4000 	 1.4500 	 10.0518 	 8.7607 	 1.5392 	 63.0071 	 1.8652 	 55.1645 	 31.6727 	 7.8426 	 2.5800
  0.4000 	 1.4550 	 10.0551 	 8.7592 	 1.5354 	 63.0026 	 1.8636 	 55.2511 	 31.1792 	 7.7515 	 2.5800
  0.4000 	 1.4600 	 10.0583 	 8.7578 	 1.5316 	 62.9955 	 1.8619 	 55.3372 	 30.6814 	 7.6583 	 2.5800
  0.4000 	 1.4650 	 10.0615 	 8.7564 	 1.5278 	 62.9858 	 1.8603 	 55.4230 	 30.1791 	 7.5629 	 2.5800
  0.4000 	 1.4700 	 10.0647 	 8.7550 	 1.5241 	 62.9735 	 1.8587 	 55.5083 	 29.6718 	 7.4652 	 2.5800
  0.4000 	 1.4750 	 10.0679 	 8.7537 	 1.5203 	 62.9583 	 1.8571 	 55.5931 	 29.1594 	 7.3652 	 2.5800
  0.4000 	 1.4800 	 10.0710 	 8.7523 	 1.5166 	 62.9402 	 1.8555 	 55.6776 	 28.6416 	 7.2627 	 2.5800
  0.4000 	 1.4850 	 10.0742 	 8.7509 	 1.5130 	 62.9192 	 1.8540 	 55.7616 	 28.1179 	 7.1577 	 2.5800
  0.4000 	 1.4900 	 10.0773 	 8.7496 	 1.5093 	 62.8951 	 1.8524 	 55.8451 	 27.5881 	 7.0500 	 2.5800
  0.4000 	 1.4950 	 10.0804 	 8.7482 	 1.5057 	 62.8678 	 1.8509 	 55.9283 	 27.0516 	 6.9395 	 2.5800
  0.4000 	 1.5000 	 10.0834 	 8.7469 	 1.5021 	 62.8372 	 1.8494 	 56.0110 	 26.5082 	 6.8262 	 2.5800
  0.4000 	 1.5050 	 10.0865 	 8.7456 	 1.4985 	 62.8031 	 1.8478 	 56.0934 	 25.9573 	 6.7098 	 2.5800
  0.4000 	 1.5100 	 10.0895 	 8.7443 	 1.4949 	 62.7654 	 1.8464 	 56.1753 	 25.3984 	 6.5902 	 2.5800
  0.4000 	 1.5150 	 10.0925 	 8.7430 	 1.4913 	 62.7240 	 1.8449 	 56.2568 	 24.8309 	 6.4672 	 2.5800
  0.4000 	 1.5200 	 10.0955 	 8.7417 	 1.4878 	 62.6785 	 1.8434 	 56.3379 	 24.2541 	 6.3406 	 2.5800
  0.4000 	 1.5250 	 10.0984 	 8.7404 	 1.4843 	 62.6289 	 1.8420 	 56.4186 	 23.6674 	 6.2103 	 2.5800
  0.4000 	 1.5300 	 10.1014 	 8.7391 	 1.4808 	 62.5748 	 1.8405 	 56.4988 	 23.0699 	 6.0760 	 2.5800
  0.4000 	 1.5350 	 10.1043 	 8.7378 	 1.4774 	 62.5161 	 1.8391 	 56.5787 	 22.4608 	 5.9374 	 2.5800
  0.4000 	 1.5400 	 10.1072 	 8.7366 	 1.4739 	 62.4524 	 1.8377 	 56.6582 	 21.8390 	 5.7942 	 2.5800
  0.4000 	 1.5450 	 10.1101 	 8.7353 	 1.4705 	 62.3834 	 1.8363 	 56.7373 	 21.2033 	 5.6461 	 2.5800
  0.4000 	 1.5500 	 10.1130 	 8.7341 	 1.4671 	 62.3087 	 1.8349 	 56.8160 	 20.5526 	 5.4927 	 2.5800
  0.4000 	 1.5550 	 10.1158 	 8.7328 	 1.4637 	 62.2278 	 1.8335 	 56.8943 	 19.8851 	 5.3335 	 2.5800
  0.4000 	 1.5600 	 10.1187 	 8.7316 	 1.4603 	 62.1403 	 1.8321 	 56.9723 	 19.1992 	 5.1680 	 2.5800
  0.4000 	 1.5650 	 10.1215 	 8.7304 	 1.4570 	 62.0455 	 1.8308 	 57.0498 	 18.4927 	 4.9956 	 2.5800
  0.4000 	 1.5700 	 10.1243 	 8.7292 	 1.4536 	 61.9426 	 1.8294 	 57.1270 	 17.7631 	 4.8156 	 2.5800
  0.4000 	 1.5750 	 10.1271 	 8.7280 	 1.4503 	 61.8308 	 1.8281 	 57.2038 	 17.0074 	 4.6271 	 2.5800
  0.4000 	 1.5800 	 10.1298 	 8.7268 	 1.4470 	 61.7091 	 1.8268 	 57.2802 	 16.2219 	 4.4289 	 2.5800
  0.4000 	 1.5850 	 10.1326 	 8.7256 	 1.4438 	 61.5760 	 1.8255 	 57.3562 	 15.4021 	 4.2198 	 2.5800
  0.4000 	 1.5900 	 10.1353 	 8.7244 	 1.4405 	 61.4299 	 1.8242 	 57.4319 	 14.5419 	 3.9980 	 2.5800
  0.4000 	 1.5950 	 10.1380 	 8.7233 	 1.4373 	 61.2685 	 1.8229 	 57.5072 	 13.6338 	 3.7613 	 2.5800
  0.4000 	 1.6000 	 10.1407 	 8.7221 	 1.4341 	 61.0889 	 1.8216 	 57.5821 	 12.6674 	 3.5068 	 2.5800
  0.4000 	 1.6050 	 10.1434 	 8.7210 	 1.4309 	 60.8868 	 1.8204 	 57.6567 	 11.6281 	 3.2301 	 2.5800
  0.4000 	 1.6100 	 10.1460 	 8.7198 	 1.4277 	 60.6559 	 1.8191 	 57.7309 	 10.4941 	 2.9250 	 2.5800
  0.4000 	 1.6150 	 10.1487 	 8.7187 	 1.4245 	 60.3863 	 1.8179 	 57.8047 	 9.2306 	 2.5816 	 2.5800
  0.4000 	 1.6200 	 10.1513 	 8.7175 	 1.4214 	 60.0600 	 1.8167 	 57.8782 	 7.7746 	 2.1817 	 2.5800
  0.4000 	 1.6250 	 10.1539 	 8.7164 	 1.4182 	 59.6371 	 1.8154 	 57.9514 	 5.9870 	 1.6857 	 2.5800
  0.4000 	 1.4050 	 10.0177 	 8.7926 	 1.5791 	 62.8527 	 1.8855 	 54.3066 	 35.9189 	 8.5461 	 2.5900
  0.4000 	 1.4100 	 10.0211 	 8.7911 	 1.5750 	 62.8687 	 1.8837 	 54.3974 	 35.4544 	 8.4713 	 2.5900
  0.4000 	 1.4150 	 10.0246 	 8.7896 	 1.5710 	 62.8827 	 1.8819 	 54.4878 	 34.9871 	 8.3949 	 2.5900
  0.4000 	 1.4200 	 10.0280 	 8.7881 	 1.5670 	 62.8945 	 1.8801 	 54.5776 	 34.5170 	 8.3169 	 2.5900
  0.4000 	 1.4250 	 10.0314 	 8.7866 	 1.5630 	 62.9041 	 1.8783 	 54.6670 	 34.0439 	 8.2371 	 2.5900
  0.4000 	 1.4300 	 10.0348 	 8.7851 	 1.5591 	 62.9115 	 1.8766 	 54.7560 	 33.5676 	 8.1555 	 2.5900
  0.4000 	 1.4350 	 10.0382 	 8.7836 	 1.5551 	 62.9166 	 1.8749 	 54.8445 	 33.0880 	 8.0721 	 2.5900
  0.4000 	 1.4400 	 10.0415 	 8.7822 	 1.5512 	 62.9194 	 1.8731 	 54.9325 	 32.6048 	 7.9869 	 2.5900
  0.4000 	 1.4450 	 10.0448 	 8.7807 	 1.5473 	 62.9198 	 1.8714 	 55.0201 	 32.1180 	 7.8997 	 2.5900
  0.4000 	 1.4500 	 10.0481 	 8.7793 	 1.5435 	 62.9177 	 1.8698 	 55.1072 	 31.6271 	 7.8105 	 2.5900
  0.4000 	 1.4550 	 10.0514 	 8.7778 	 1.5397 	 62.9131 	 1.8681 	 55.1939 	 31.1322 	 7.7192 	 2.5900
  0.4000 	 1.4600 	 10.0547 	 8.7764 	 1.5359 	 62.9060 	 1.8665 	 55.2802 	 30.6328 	 7.6258 	 2.5900
  0.4000 	 1.4650 	 10.0579 	 8.7750 	 1.5321 	 62.8962 	 1.8648 	 55.3660 	 30.1288 	 7.5302 	 2.5900
  0.4000 	 1.4700 	 10.0611 	 8.7736 	 1.5283 	 62.8837 	 1.8632 	 55.4514 	 29.6199 	 7.4324 	 2.5900
  0.4000 	 1.4750 	 10.0643 	 8.7722 	 1.5246 	 62.8684 	 1.8616 	 55.5363 	 29.1057 	 7.3321 	 2.5900
  0.4000 	 1.4800 	 10.0674 	 8.7708 	 1.5209 	 62.8503 	 1.8600 	 55.6208 	 28.5860 	 7.2294 	 2.5900
  0.4000 	 1.4850 	 10.0706 	 8.7695 	 1.5172 	 62.8291 	 1.8584 	 55.7049 	 28.0605 	 7.1242 	 2.5900
  0.4000 	 1.4900 	 10.0737 	 8.7681 	 1.5135 	 62.8048 	 1.8569 	 55.7886 	 27.5287 	 7.0163 	 2.5900
  0.4000 	 1.4950 	 10.0768 	 8.7668 	 1.5099 	 62.7773 	 1.8553 	 55.8718 	 26.9902 	 6.9055 	 2.5900
  0.4000 	 1.5000 	 10.0799 	 8.7654 	 1.5062 	 62.7465 	 1.8538 	 55.9546 	 26.4446 	 6.7919 	 2.5900
  0.4000 	 1.5050 	 10.0829 	 8.7641 	 1.5026 	 62.7122 	 1.8523 	 56.0370 	 25.8914 	 6.6752 	 2.5900
  0.4000 	 1.5100 	 10.0860 	 8.7628 	 1.4991 	 62.6742 	 1.8508 	 56.1190 	 25.3301 	 6.5552 	 2.5900
  0.4000 	 1.5150 	 10.0890 	 8.7614 	 1.4955 	 62.6325 	 1.8493 	 56.2006 	 24.7601 	 6.4319 	 2.5900
  0.4000 	 1.5200 	 10.0920 	 8.7601 	 1.4920 	 62.5867 	 1.8478 	 56.2818 	 24.1807 	 6.3049 	 2.5900
  0.4000 	 1.5250 	 10.0950 	 8.7588 	 1.4884 	 62.5367 	 1.8464 	 56.3626 	 23.5911 	 6.1741 	 2.5900
  0.4000 	 1.5300 	 10.0979 	 8.7576 	 1.4849 	 62.4823 	 1.8449 	 56.4429 	 22.9907 	 6.0393 	 2.5900
  0.4000 	 1.5350 	 10.1008 	 8.7563 	 1.4815 	 62.4231 	 1.8435 	 56.5229 	 22.3784 	 5.9002 	 2.5900
  0.4000 	 1.5400 	 10.1038 	 8.7550 	 1.4780 	 62.3589 	 1.8421 	 56.6025 	 21.7532 	 5.7564 	 2.5900
  0.4000 	 1.5450 	 10.1067 	 8.7538 	 1.4746 	 62.2893 	 1.8407 	 56.6817 	 21.1139 	 5.6077 	 2.5900
  0.4000 	 1.5500 	 10.1096 	 8.7525 	 1.4712 	 62.2140 	 1.8393 	 56.7604 	 20.4592 	 5.4535 	 2.5900
  0.4000 	 1.5550 	 10.1124 	 8.7513 	 1.4678 	 62.1324 	 1.8379 	 56.8388 	 19.7874 	 5.2935 	 2.5900
  0.4000 	 1.5600 	 10.1153 	 8.7500 	 1.4644 	 62.0440 	 1.8365 	 56.9169 	 19.0968 	 5.1271 	 2.5900
  0.4000 	 1.5650 	 10.1181 	 8.7488 	 1.4610 	 61.9482 	 1.8351 	 56.9945 	 18.3852 	 4.9537 	 2.5900
  0.4000 	 1.5700 	 10.1209 	 8.7476 	 1.4577 	 61.8443 	 1.8338 	 57.0717 	 17.6499 	 4.7726 	 2.5900
  0.4000 	 1.5750 	 10.1237 	 8.7464 	 1.4544 	 61.7313 	 1.8325 	 57.1486 	 16.8879 	 4.5827 	 2.5900
  0.4000 	 1.5800 	 10.1265 	 8.7452 	 1.4511 	 61.6081 	 1.8311 	 57.2251 	 16.0953 	 4.3830 	 2.5900
  0.4000 	 1.5850 	 10.1292 	 8.7440 	 1.4478 	 61.4733 	 1.8298 	 57.3012 	 15.2672 	 4.1720 	 2.5900
  0.4000 	 1.5900 	 10.1320 	 8.7428 	 1.4445 	 61.3251 	 1.8285 	 57.3770 	 14.3975 	 3.9481 	 2.5900
  0.4000 	 1.5950 	 10.1347 	 8.7416 	 1.4413 	 61.1611 	 1.8272 	 57.4524 	 13.4781 	 3.7088 	 2.5900
  0.4000 	 1.6000 	 10.1374 	 8.7405 	 1.4380 	 60.9783 	 1.8260 	 57.5274 	 12.4979 	 3.4510 	 2.5900
  0.4000 	 1.6050 	 10.1401 	 8.7393 	 1.4348 	 60.7721 	 1.8247 	 57.6020 	 11.4414 	 3.1701 	 2.5900
  0.4000 	 1.6100 	 10.1427 	 8.7382 	 1.4316 	 60.5357 	 1.8234 	 57.6763 	 10.2848 	 2.8593 	 2.5900
  0.4000 	 1.6150 	 10.1454 	 8.7370 	 1.4285 	 60.2580 	 1.8222 	 57.7502 	 8.9896 	 2.5078 	 2.5900
  0.4000 	 1.6200 	 10.1480 	 8.7359 	 1.4253 	 59.9186 	 1.8209 	 57.8238 	 7.4841 	 2.0948 	 2.5900
  0.4000 	 1.6250 	 10.1506 	 8.7347 	 1.4222 	 59.4700 	 1.8197 	 57.8970 	 5.6009 	 1.5730 	 2.5900
  0.4000 	 1.4050 	 10.0139 	 8.8113 	 1.5835 	 62.7639 	 1.8901 	 54.2488 	 35.8852 	 8.5151 	 2.6000
  0.4000 	 1.4100 	 10.0174 	 8.8098 	 1.5794 	 62.7800 	 1.8883 	 54.3397 	 35.4195 	 8.4403 	 2.6000
  0.4000 	 1.4150 	 10.0208 	 8.8082 	 1.5754 	 62.7939 	 1.8865 	 54.4301 	 34.9510 	 8.3638 	 2.6000
  0.4000 	 1.4200 	 10.0243 	 8.8067 	 1.5714 	 62.8057 	 1.8847 	 54.5201 	 34.4797 	 8.2857 	 2.6000
  0.4000 	 1.4250 	 10.0277 	 8.8052 	 1.5674 	 62.8153 	 1.8829 	 54.6096 	 34.0053 	 8.2058 	 2.6000
  0.4000 	 1.4300 	 10.0311 	 8.8037 	 1.5634 	 62.8227 	 1.8812 	 54.6986 	 33.5277 	 8.1241 	 2.6000
  0.4000 	 1.4350 	 10.0345 	 8.8022 	 1.5595 	 62.8277 	 1.8794 	 54.7872 	 33.0467 	 8.0406 	 2.6000
  0.4000 	 1.4400 	 10.0378 	 8.8008 	 1.5556 	 62.8305 	 1.8777 	 54.8753 	 32.5622 	 7.9552 	 2.6000
  0.4000 	 1.4450 	 10.0412 	 8.7993 	 1.5517 	 62.8308 	 1.8760 	 54.9629 	 32.0739 	 7.8678 	 2.6000
  0.4000 	 1.4500 	 10.0445 	 8.7978 	 1.5478 	 62.8287 	 1.8743 	 55.0502 	 31.5816 	 7.7785 	 2.6000
  0.4000 	 1.4550 	 10.0477 	 8.7964 	 1.5440 	 62.8240 	 1.8726 	 55.1369 	 31.0851 	 7.6871 	 2.6000
  0.4000 	 1.4600 	 10.0510 	 8.7950 	 1.5401 	 62.8168 	 1.8710 	 55.2233 	 30.5841 	 7.5936 	 2.6000
  0.4000 	 1.4650 	 10.0542 	 8.7936 	 1.5363 	 62.8070 	 1.8693 	 55.3092 	 30.0785 	 7.4978 	 2.6000
  0.4000 	 1.4700 	 10.0575 	 8.7921 	 1.5326 	 62.7944 	 1.8677 	 55.3946 	 29.5679 	 7.3997 	 2.6000
  0.4000 	 1.4750 	 10.0607 	 8.7907 	 1.5288 	 62.7789 	 1.8661 	 55.4797 	 29.0520 	 7.2993 	 2.6000
  0.4000 	 1.4800 	 10.0638 	 8.7894 	 1.5251 	 62.7606 	 1.8645 	 55.5642 	 28.5305 	 7.1964 	 2.6000
  0.4000 	 1.4850 	 10.0670 	 8.7880 	 1.5214 	 62.7393 	 1.8629 	 55.6484 	 28.0030 	 7.0909 	 2.6000
  0.4000 	 1.4900 	 10.0701 	 8.7866 	 1.5177 	 62.7149 	 1.8614 	 55.7322 	 27.4692 	 6.9827 	 2.6000
  0.4000 	 1.4950 	 10.0732 	 8.7853 	 1.5141 	 62.6872 	 1.8598 	 55.8155 	 26.9286 	 6.8717 	 2.6000
  0.4000 	 1.5000 	 10.0763 	 8.7839 	 1.5104 	 62.6561 	 1.8583 	 55.8984 	 26.3809 	 6.7578 	 2.6000
  0.4000 	 1.5050 	 10.0794 	 8.7826 	 1.5068 	 62.6216 	 1.8568 	 55.9809 	 25.8254 	 6.6407 	 2.6000
  0.4000 	 1.5100 	 10.0824 	 8.7812 	 1.5032 	 62.5834 	 1.8552 	 56.0630 	 25.2617 	 6.5204 	 2.6000
  0.4000 	 1.5150 	 10.0855 	 8.7799 	 1.4996 	 62.5413 	 1.8537 	 56.1446 	 24.6892 	 6.3967 	 2.6000
  0.4000 	 1.5200 	 10.0885 	 8.7786 	 1.4961 	 62.4952 	 1.8523 	 56.2259 	 24.1071 	 6.2693 	 2.6000
  0.4000 	 1.5250 	 10.0915 	 8.7773 	 1.4926 	 62.4448 	 1.8508 	 56.3067 	 23.5147 	 6.1381 	 2.6000
  0.4000 	 1.5300 	 10.0944 	 8.7760 	 1.4891 	 62.3900 	 1.8493 	 56.3872 	 22.9113 	 6.0028 	 2.6000
  0.4000 	 1.5350 	 10.0974 	 8.7747 	 1.4856 	 62.3304 	 1.8479 	 56.4672 	 22.2958 	 5.8631 	 2.6000
  0.4000 	 1.5400 	 10.1003 	 8.7734 	 1.4821 	 62.2657 	 1.8465 	 56.5469 	 21.6672 	 5.7188 	 2.6000
  0.4000 	 1.5450 	 10.1032 	 8.7722 	 1.4787 	 62.1955 	 1.8451 	 56.6261 	 21.0242 	 5.5694 	 2.6000
  0.4000 	 1.5500 	 10.1061 	 8.7709 	 1.4752 	 62.1195 	 1.8436 	 56.7050 	 20.3655 	 5.4145 	 2.6000
  0.4000 	 1.5550 	 10.1090 	 8.7697 	 1.4718 	 62.0372 	 1.8423 	 56.7835 	 19.6894 	 5.2537 	 2.6000
  0.4000 	 1.5600 	 10.1118 	 8.7684 	 1.4684 	 61.9480 	 1.8409 	 56.8616 	 18.9941 	 5.0864 	 2.6000
  0.4000 	 1.5650 	 10.1147 	 8.7672 	 1.4651 	 61.8513 	 1.8395 	 56.9393 	 18.2773 	 4.9120 	 2.6000
  0.4000 	 1.5700 	 10.1175 	 8.7660 	 1.4617 	 61.7462 	 1.8382 	 57.0166 	 17.5362 	 4.7296 	 2.6000
  0.4000 	 1.5750 	 10.1203 	 8.7648 	 1.4584 	 61.6319 	 1.8368 	 57.0936 	 16.7677 	 4.5383 	 2.6000
  0.4000 	 1.5800 	 10.1231 	 8.7635 	 1.4551 	 61.5072 	 1.8355 	 57.1702 	 15.9678 	 4.3371 	 2.6000
  0.4000 	 1.5850 	 10.1259 	 8.7623 	 1.4518 	 61.3706 	 1.8342 	 57.2464 	 15.1313 	 4.1243 	 2.6000
  0.4000 	 1.5900 	 10.1286 	 8.7612 	 1.4485 	 61.2203 	 1.8328 	 57.3222 	 14.2518 	 3.8981 	 2.6000
  0.4000 	 1.5950 	 10.1313 	 8.7600 	 1.4453 	 61.0538 	 1.8316 	 57.3977 	 13.3208 	 3.6561 	 2.6000
  0.4000 	 1.6000 	 10.1340 	 8.7588 	 1.4420 	 60.8676 	 1.8303 	 57.4728 	 12.3264 	 3.3949 	 2.6000
  0.4000 	 1.6050 	 10.1367 	 8.7576 	 1.4388 	 60.6571 	 1.8290 	 57.5475 	 11.2519 	 3.1096 	 2.6000
  0.4000 	 1.6100 	 10.1394 	 8.7565 	 1.4356 	 60.4147 	 1.8277 	 57.6219 	 10.0715 	 2.7929 	 2.6000
  0.4000 	 1.6150 	 10.1421 	 8.7553 	 1.4324 	 60.1284 	 1.8265 	 57.6959 	 8.7423 	 2.4326 	 2.6000
  0.4000 	 1.6200 	 10.1447 	 8.7542 	 1.4292 	 59.7748 	 1.8252 	 57.7695 	 7.1823 	 2.0052 	 2.6000
  0.4000 	 1.6250 	 10.1474 	 8.7530 	 1.4261 	 59.2958 	 1.8240 	 57.8428 	 5.1868 	 1.4530 	 2.6000
  0.4100 	 1.4150 	 10.0585 	 8.6206 	 1.5267 	 64.0553 	 1.8402 	 55.0139 	 35.8156 	 9.0414 	 2.5000
  0.4100 	 1.4200 	 10.0618 	 8.6192 	 1.5228 	 64.0698 	 1.8385 	 55.1030 	 35.3739 	 8.9668 	 2.5000
  0.4100 	 1.4250 	 10.0651 	 8.6178 	 1.5190 	 64.0823 	 1.8369 	 55.1916 	 34.9298 	 8.8906 	 2.5000
  0.4100 	 1.4300 	 10.0684 	 8.6164 	 1.5151 	 64.0927 	 1.8352 	 55.2798 	 34.4833 	 8.8128 	 2.5000
  0.4100 	 1.4350 	 10.0716 	 8.6150 	 1.5113 	 64.1010 	 1.8335 	 55.3676 	 34.0342 	 8.7334 	 2.5000
  0.4100 	 1.4400 	 10.0748 	 8.6136 	 1.5075 	 64.1071 	 1.8319 	 55.4548 	 33.5824 	 8.6523 	 2.5000
  0.4100 	 1.4450 	 10.0780 	 8.6123 	 1.5037 	 64.1111 	 1.8303 	 55.5417 	 33.1277 	 8.5694 	 2.5000
  0.4100 	 1.4500 	 10.0812 	 8.6109 	 1.5000 	 64.1128 	 1.8287 	 55.6280 	 32.6700 	 8.4848 	 2.5000
  0.4100 	 1.4550 	 10.0844 	 8.6096 	 1.4963 	 64.1123 	 1.8271 	 55.7140 	 32.2092 	 8.3983 	 2.5000
  0.4100 	 1.4600 	 10.0875 	 8.6082 	 1.4926 	 64.1094 	 1.8256 	 55.7994 	 31.7450 	 8.3100 	 2.5000
  0.4100 	 1.4650 	 10.0906 	 8.6069 	 1.4889 	 64.1042 	 1.8240 	 55.8845 	 31.2773 	 8.2197 	 2.5000
  0.4100 	 1.4700 	 10.0937 	 8.6056 	 1.4852 	 64.0965 	 1.8225 	 55.9691 	 30.8059 	 8.1274 	 2.5000
  0.4100 	 1.4750 	 10.0968 	 8.6042 	 1.4816 	 64.0864 	 1.8209 	 56.0533 	 30.3305 	 8.0331 	 2.5000
  0.4100 	 1.4800 	 10.0998 	 8.6029 	 1.4780 	 64.0737 	 1.8194 	 56.1370 	 29.8510 	 7.9366 	 2.5000
  0.4100 	 1.4850 	 10.1029 	 8.6017 	 1.4744 	 64.0583 	 1.8179 	 56.2204 	 29.3671 	 7.8380 	 2.5000
  0.4100 	 1.4900 	 10.1059 	 8.6004 	 1.4708 	 64.0403 	 1.8164 	 56.3033 	 28.8785 	 7.7371 	 2.5000
  0.4100 	 1.4950 	 10.1089 	 8.5991 	 1.4673 	 64.0195 	 1.8150 	 56.3857 	 28.3850 	 7.6337 	 2.5000
  0.4100 	 1.5000 	 10.1118 	 8.5978 	 1.4637 	 63.9958 	 1.8135 	 56.4678 	 27.8864 	 7.5280 	 2.5000
  0.4100 	 1.5050 	 10.1148 	 8.5966 	 1.4602 	 63.9691 	 1.8121 	 56.5494 	 27.3821 	 7.4197 	 2.5000
  0.4100 	 1.5100 	 10.1177 	 8.5953 	 1.4567 	 63.9394 	 1.8106 	 56.6307 	 26.8720 	 7.3087 	 2.5000
  0.4100 	 1.5150 	 10.1206 	 8.5941 	 1.4533 	 63.9064 	 1.8092 	 56.7115 	 26.3557 	 7.1949 	 2.5000
  0.4100 	 1.5200 	 10.1235 	 8.5929 	 1.4498 	 63.8701 	 1.8078 	 56.7919 	 25.8327 	 7.0782 	 2.5000
  0.4100 	 1.5250 	 10.1264 	 8.5916 	 1.4464 	 63.8304 	 1.8064 	 56.8719 	 25.3025 	 6.9585 	 2.5000
  0.4100 	 1.5300 	 10.1293 	 8.5904 	 1.4430 	 63.7871 	 1.8050 	 56.9515 	 24.7648 	 6.8355 	 2.5000
  0.4100 	 1.5350 	 10.1321 	 8.5892 	 1.4396 	 63.7399 	 1.8037 	 57.0307 	 24.2189 	 6.7092 	 2.5000
  0.4100 	 1.5400 	 10.1349 	 8.5880 	 1.4363 	 63.6889 	 1.8023 	 57.1096 	 23.6642 	 6.5793 	 2.5000
  0.4100 	 1.5450 	 10.1377 	 8.5868 	 1.4329 	 63.6336 	 1.8010 	 57.1880 	 23.1001 	 6.4456 	 2.5000
  0.4100 	 1.5500 	 10.1405 	 8.5856 	 1.4296 	 63.5739 	 1.7997 	 57.2660 	 22.5259 	 6.3079 	 2.5000
  0.4100 	 1.5550 	 10.1433 	 8.5845 	 1.4263 	 63.5096 	 1.7983 	 57.3437 	 21.9406 	 6.1659 	 2.5000
  0.4100 	 1.5600 	 10.1460 	 8.5833 	 1.4230 	 63.4403 	 1.7970 	 57.4209 	 21.3434 	 6.0194 	 2.5000
  0.4100 	 1.5650 	 10.1487 	 8.5822 	 1.4197 	 63.3657 	 1.7957 	 57.4978 	 20.7332 	 5.8679 	 2.5000
  0.4100 	 1.5700 	 10.1514 	 8.5810 	 1.4165 	 63.2855 	 1.7945 	 57.5743 	 20.1087 	 5.7112 	 2.5000
  0.4100 	 1.5750 	 10.1541 	 8.5799 	 1.4132 	 63.1991 	 1.7932 	 57.6504 	 19.4685 	 5.5487 	 2.5000
  0.4100 	 1.5800 	 10.1568 	 8.5787 	 1.4100 	 63.1061 	 1.7919 	 57.7261 	 18.8111 	 5.3799 	 2.5000
  0.4100 	 1.5850 	 10.1595 	 8.5776 	 1.4068 	 63.0059 	 1.7907 	 57.8015 	 18.1344 	 5.2044 	 2.5000
  0.4100 	 1.5900 	 10.1621 	 8.5765 	 1.4037 	 62.8977 	 1.7894 	 57.8765 	 17.4362 	 5.0212 	 2.5000
  0.4100 	 1.5950 	 10.1647 	 8.5754 	 1.4005 	 62.7808 	 1.7882 	 57.9511 	 16.7138 	 4.8296 	 2.5000
  0.4100 	 1.6000 	 10.1674 	 8.5743 	 1.3973 	 62.6540 	 1.7870 	 58.0254 	 15.9637 	 4.6286 	 2.5000
  0.4100 	 1.6050 	 10.1699 	 8.5732 	 1.3942 	 62.5162 	 1.7858 	 58.0993 	 15.1819 	 4.4169 	 2.5000
  0.4100 	 1.6100 	 10.1725 	 8.5721 	 1.3911 	 62.3656 	 1.7846 	 58.1728 	 14.3632 	 4.1928 	 2.5000
  0.4100 	 1.6150 	 10.1751 	 8.5710 	 1.3880 	 62.2003 	 1.7834 	 58.2460 	 13.5007 	 3.9542 	 2.5000
  0.4100 	 1.6200 	 10.1776 	 8.5699 	 1.3850 	 62.0173 	 1.7822 	 58.3188 	 12.5855 	 3.6985 	 2.5000
  0.4100 	 1.6250 	 10.1802 	 8.5689 	 1.3819 	 61.8130 	 1.7810 	 58.3913 	 11.6048 	 3.4216 	 2.5000
  0.4100 	 1.6300 	 10.1827 	 8.5678 	 1.3789 	 61.5816 	 1.7799 	 58.4634 	 10.5406 	 3.1181 	 2.5000
  0.4100 	 1.6350 	 10.1852 	 8.5668 	 1.3758 	 61.3145 	 1.7787 	 58.5352 	 9.3642 	 2.7793 	 2.5000
  0.4100 	 1.6400 	 10.1877 	 8.5657 	 1.3728 	 60.9967 	 1.7776 	 58.6066 	 8.0265 	 2.3900 	 2.5000
  0.4100 	 1.6450 	 10.1901 	 8.5647 	 1.3698 	 60.5978 	 1.7765 	 58.6777 	 6.4271 	 1.9200 	 2.5000
  0.4100 	 1.4150 	 10.0547 	 8.6395 	 1.5311 	 63.9627 	 1.8449 	 54.9548 	 35.7827 	 9.0079 	 2.5100
  0.4100 	 1.4200 	 10.0581 	 8.6381 	 1.5272 	 63.9772 	 1.8432 	 55.0440 	 35.3398 	 8.9332 	 2.5100
  0.4100 	 1.4250 	 10.0614 	 8.6367 	 1.5234 	 63.9896 	 1.8415 	 55.1327 	 34.8946 	 8.8569 	 2.5100
  0.4100 	 1.4300 	 10.0646 	 8.6353 	 1.5195 	 64.0000 	 1.8398 	 55.2210 	 34.4469 	 8.7790 	 2.5100
  0.4100 	 1.4350 	 10.0679 	 8.6339 	 1.5157 	 64.0083 	 1.8382 	 55.3088 	 33.9965 	 8.6995 	 2.5100
  0.4100 	 1.4400 	 10.0711 	 8.6325 	 1.5119 	 64.0144 	 1.8365 	 55.3961 	 33.5435 	 8.6183 	 2.5100
  0.4100 	 1.4450 	 10.0743 	 8.6311 	 1.5081 	 64.0183 	 1.8349 	 55.4831 	 33.0875 	 8.5353 	 2.5100
  0.4100 	 1.4500 	 10.0775 	 8.6297 	 1.5043 	 64.0200 	 1.8333 	 55.5695 	 32.6285 	 8.4505 	 2.5100
  0.4100 	 1.4550 	 10.0807 	 8.6284 	 1.5006 	 64.0195 	 1.8317 	 55.6555 	 32.1663 	 8.3639 	 2.5100
  0.4100 	 1.4600 	 10.0839 	 8.6270 	 1.4969 	 64.0165 	 1.8301 	 55.7411 	 31.7007 	 8.2754 	 2.5100
  0.4100 	 1.4650 	 10.0870 	 8.6257 	 1.4932 	 64.0113 	 1.8285 	 55.8262 	 31.2315 	 8.1850 	 2.5100
  0.4100 	 1.4700 	 10.0901 	 8.6243 	 1.4895 	 64.0035 	 1.8270 	 55.9109 	 30.7585 	 8.0926 	 2.5100
  0.4100 	 1.4750 	 10.0932 	 8.6230 	 1.4859 	 63.9933 	 1.8255 	 55.9952 	 30.2816 	 7.9981 	 2.5100
  0.4100 	 1.4800 	 10.0962 	 8.6217 	 1.4822 	 63.9805 	 1.8239 	 56.0790 	 29.8005 	 7.9014 	 2.5100
  0.4100 	 1.4850 	 10.0993 	 8.6204 	 1.4786 	 63.9650 	 1.8224 	 56.1625 	 29.3149 	 7.8026 	 2.5100
  0.4100 	 1.4900 	 10.1023 	 8.6191 	 1.4751 	 63.9469 	 1.8209 	 56.2454 	 28.8246 	 7.7014 	 2.5100
  0.4100 	 1.4950 	 10.1053 	 8.6178 	 1.4715 	 63.9259 	 1.8195 	 56.3280 	 28.3294 	 7.5979 	 2.5100
  0.4100 	 1.5000 	 10.1083 	 8.6166 	 1.4680 	 63.9021 	 1.8180 	 56.4102 	 27.8288 	 7.4919 	 2.5100
  0.4100 	 1.5050 	 10.1113 	 8.6153 	 1.4644 	 63.8752 	 1.8166 	 56.4919 	 27.3227 	 7.3833 	 2.5100
  0.4100 	 1.5100 	 10.1142 	 8.6140 	 1.4609 	 63.8453 	 1.8151 	 56.5732 	 26.8106 	 7.2721 	 2.5100
  0.4100 	 1.5150 	 10.1171 	 8.6128 	 1.4575 	 63.8121 	 1.8137 	 56.6541 	 26.2921 	 7.1580 	 2.5100
  0.4100 	 1.5200 	 10.1200 	 8.6115 	 1.4540 	 63.7756 	 1.8123 	 56.7346 	 25.7669 	 7.0410 	 2.5100
  0.4100 	 1.5250 	 10.1229 	 8.6103 	 1.4506 	 63.7356 	 1.8109 	 56.8147 	 25.2345 	 6.9209 	 2.5100
  0.4100 	 1.5300 	 10.1258 	 8.6091 	 1.4472 	 63.6920 	 1.8095 	 56.8944 	 24.6943 	 6.7976 	 2.5100
  0.4100 	 1.5350 	 10.1286 	 8.6079 	 1.4438 	 63.6445 	 1.8081 	 56.9737 	 24.1458 	 6.6708 	 2.5100
  0.4100 	 1.5400 	 10.1315 	 8.6067 	 1.4404 	 63.5931 	 1.8068 	 57.0526 	 23.5885 	 6.5405 	 2.5100
  0.4100 	 1.5450 	 10.1343 	 8.6055 	 1.4370 	 63.5374 	 1.8054 	 57.1311 	 23.0216 	 6.4063 	 2.5100
  0.4100 	 1.5500 	 10.1371 	 8.6043 	 1.4337 	 63.4773 	 1.8041 	 57.2092 	 22.4443 	 6.2681 	 2.5100
  0.4100 	 1.5550 	 10.1398 	 8.6031 	 1.4304 	 63.4125 	 1.8027 	 57.2870 	 21.8558 	 6.1255 	 2.5100
  0.4100 	 1.5600 	 10.1426 	 8.6019 	 1.4271 	 63.3426 	 1.8014 	 57.3643 	 21.2552 	 5.9783 	 2.5100
  0.4100 	 1.5650 	 10.1453 	 8.6008 	 1.4238 	 63.2674 	 1.8001 	 57.4413 	 20.6413 	 5.8262 	 2.5100
  0.4100 	 1.5700 	 10.1480 	 8.5996 	 1.4205 	 63.1865 	 1.7988 	 57.5178 	 20.0128 	 5.6686 	 2.5100
  0.4100 	 1.5750 	 10.1508 	 8.5985 	 1.4173 	 63.0993 	 1.7976 	 57.5940 	 19.3683 	 5.5053 	 2.5100
  0.4100 	 1.5800 	 10.1534 	 8.5973 	 1.4141 	 63.0054 	 1.7963 	 57.6699 	 18.7062 	 5.3356 	 2.5100
  0.4100 	 1.5850 	 10.1561 	 8.5962 	 1.4109 	 62.9042 	 1.7950 	 57.7453 	 18.0244 	 5.1589 	 2.5100
  0.4100 	 1.5900 	 10.1588 	 8.5951 	 1.4077 	 62.7949 	 1.7938 	 57.8204 	 17.3205 	 4.9745 	 2.5100
  0.4100 	 1.5950 	 10.1614 	 8.5940 	 1.4045 	 62.6766 	 1.7926 	 57.8951 	 16.5917 	 4.7815 	 2.5100
  0.4100 	 1.6000 	 10.1640 	 8.5929 	 1.4014 	 62.5484 	 1.7913 	 57.9695 	 15.8346 	 4.5789 	 2.5100
  0.4100 	 1.6050 	 10.1666 	 8.5918 	 1.3982 	 62.4087 	 1.7901 	 58.0435 	 15.0447 	 4.3652 	 2.5100
  0.4100 	 1.6100 	 10.1692 	 8.5907 	 1.3951 	 62.2560 	 1.7889 	 58.1171 	 14.2165 	 4.1389 	 2.5100
  0.4100 	 1.6150 	 10.1718 	 8.5896 	 1.3920 	 62.0880 	 1.7877 	 58.1903 	 13.3430 	 3.8976 	 2.5100
  0.4100 	 1.6200 	 10.1743 	 8.5885 	 1.3889 	 61.9017 	 1.7865 	 58.2633 	 12.4144 	 3.6385 	 2.5100
  0.4100 	 1.6250 	 10.1769 	 8.5874 	 1.3859 	 61.6932 	 1.7854 	 58.3358 	 11.4173 	 3.3574 	 2.5100
  0.4100 	 1.6300 	 10.1794 	 8.5863 	 1.3828 	 61.4563 	 1.7842 	 58.4080 	 10.3318 	 3.0482 	 2.5100
  0.4100 	 1.6350 	 10.1819 	 8.5853 	 1.3798 	 61.1813 	 1.7830 	 58.4799 	 9.1263 	 2.7014 	 2.5100
  0.4100 	 1.6400 	 10.1844 	 8.5842 	 1.3768 	 60.8514 	 1.7819 	 58.5514 	 7.7449 	 2.3000 	 2.5100
  0.4100 	 1.6450 	 10.1869 	 8.5832 	 1.3738 	 60.4306 	 1.7808 	 58.6226 	 6.0685 	 1.8081 	 2.5100
  0.4100 	 1.4150 	 10.0510 	 8.6584 	 1.5356 	 63.8704 	 1.8495 	 54.8958 	 35.7498 	 8.9746 	 2.5200
  0.4100 	 1.4200 	 10.0543 	 8.6569 	 1.5316 	 63.8849 	 1.8478 	 54.9851 	 35.3058 	 8.8998 	 2.5200
  0.4100 	 1.4250 	 10.0576 	 8.6555 	 1.5278 	 63.8973 	 1.8461 	 55.0739 	 34.8594 	 8.8234 	 2.5200
  0.4100 	 1.4300 	 10.0609 	 8.6541 	 1.5239 	 63.9077 	 1.8444 	 55.1623 	 34.4104 	 8.7454 	 2.5200
  0.4100 	 1.4350 	 10.0642 	 8.6527 	 1.5200 	 63.9160 	 1.8428 	 55.2502 	 33.9589 	 8.6658 	 2.5200
  0.4100 	 1.4400 	 10.0674 	 8.6513 	 1.5162 	 63.9221 	 1.8411 	 55.3376 	 33.5045 	 8.5844 	 2.5200
  0.4100 	 1.4450 	 10.0707 	 8.6499 	 1.5124 	 63.9260 	 1.8395 	 55.4246 	 33.0473 	 8.5013 	 2.5200
  0.4100 	 1.4500 	 10.0739 	 8.6485 	 1.5087 	 63.9276 	 1.8379 	 55.5112 	 32.5869 	 8.4165 	 2.5200
  0.4100 	 1.4550 	 10.0770 	 8.6471 	 1.5049 	 63.9270 	 1.8363 	 55.5973 	 32.1233 	 8.3297 	 2.5200
  0.4100 	 1.4600 	 10.0802 	 8.6458 	 1.5012 	 63.9240 	 1.8347 	 55.6829 	 31.6563 	 8.2411 	 2.5200
  0.4100 	 1.4650 	 10.0833 	 8.6444 	 1.4975 	 63.9187 	 1.8331 	 55.7681 	 31.1856 	 8.1505 	 2.5200
  0.4100 	 1.4700 	 10.0865 	 8.6431 	 1.4938 	 63.9109 	 1.8315 	 55.8529 	 30.7112 	 8.0579 	 2.5200
  0.4100 	 1.4750 	 10.0896 	 8.6418 	 1.4901 	 63.9006 	 1.8300 	 55.9373 	 30.2327 	 7.9633 	 2.5200
  0.4100 	 1.4800 	 10.0926 	 8.6404 	 1.4865 	 63.8877 	 1.8285 	 56.0212 	 29.7500 	 7.8664 	 2.5200
  0.4100 	 1.4850 	 10.0957 	 8.6391 	 1.4829 	 63.8721 	 1.8270 	 56.1047 	 29.2627 	 7.7674 	 2.5200
  0.4100 	 1.4900 	 10.0987 	 8.6378 	 1.4793 	 63.8538 	 1.8255 	 56.1878 	 28.7707 	 7.6660 	 2.5200
  0.4100 	 1.4950 	 10.1017 	 8.6365 	 1.4757 	 63.8327 	 1.8240 	 56.2704 	 28.2737 	 7.5623 	 2.5200
  0.4100 	 1.5000 	 10.1047 	 8.6353 	 1.4722 	 63.8087 	 1.8225 	 56.3527 	 27.7713 	 7.4560 	 2.5200
  0.4100 	 1.5050 	 10.1077 	 8.6340 	 1.4686 	 63.7817 	 1.8210 	 56.4345 	 27.2632 	 7.3472 	 2.5200
  0.4100 	 1.5100 	 10.1107 	 8.6327 	 1.4651 	 63.7515 	 1.8196 	 56.5159 	 26.7490 	 7.2356 	 2.5200
  0.4100 	 1.5150 	 10.1136 	 8.6315 	 1.4616 	 63.7181 	 1.8182 	 56.5969 	 26.2285 	 7.1213 	 2.5200
  0.4100 	 1.5200 	 10.1165 	 8.6302 	 1.4582 	 63.6814 	 1.8167 	 56.6775 	 25.7010 	 7.0039 	 2.5200
  0.4100 	 1.5250 	 10.1194 	 8.6290 	 1.4547 	 63.6411 	 1.8153 	 56.7577 	 25.1663 	 6.8835 	 2.5200
  0.4100 	 1.5300 	 10.1223 	 8.6277 	 1.4513 	 63.5972 	 1.8139 	 56.8374 	 24.6237 	 6.7598 	 2.5200
  0.4100 	 1.5350 	 10.1252 	 8.6265 	 1.4479 	 63.5494 	 1.8126 	 56.9168 	 24.0727 	 6.6326 	 2.5200
  0.4100 	 1.5400 	 10.1280 	 8.6253 	 1.4445 	 63.4976 	 1.8112 	 56.9958 	 23.5126 	 6.5018 	 2.5200
  0.4100 	 1.5450 	 10.1308 	 8.6241 	 1.4412 	 63.4416 	 1.8098 	 57.0744 	 22.9428 	 6.3672 	 2.5200
  0.4100 	 1.5500 	 10.1336 	 8.6229 	 1.4378 	 63.3810 	 1.8085 	 57.1526 	 22.3625 	 6.2284 	 2.5200
  0.4100 	 1.5550 	 10.1364 	 8.6217 	 1.4345 	 63.3157 	 1.8072 	 57.2304 	 21.7708 	 6.0853 	 2.5200
  0.4100 	 1.5600 	 10.1392 	 8.6206 	 1.4312 	 63.2453 	 1.8058 	 57.3078 	 21.1667 	 5.9374 	 2.5200
  0.4100 	 1.5650 	 10.1419 	 8.6194 	 1.4279 	 63.1695 	 1.8045 	 57.3849 	 20.5490 	 5.7846 	 2.5200
  0.4100 	 1.5700 	 10.1447 	 8.6182 	 1.4246 	 63.0878 	 1.8032 	 57.4616 	 19.9166 	 5.6262 	 2.5200
  0.4100 	 1.5750 	 10.1474 	 8.6171 	 1.4214 	 62.9999 	 1.8019 	 57.5378 	 19.2678 	 5.4620 	 2.5200
  0.4100 	 1.5800 	 10.1501 	 8.6159 	 1.4181 	 62.9051 	 1.8007 	 57.6137 	 18.6009 	 5.2913 	 2.5200
  0.4100 	 1.5850 	 10.1527 	 8.6148 	 1.4149 	 62.8028 	 1.7994 	 57.6893 	 17.9138 	 5.1135 	 2.5200
  0.4100 	 1.5900 	 10.1554 	 8.6136 	 1.4117 	 62.6924 	 1.7981 	 57.7645 	 17.2042 	 4.9279 	 2.5200
  0.4100 	 1.5950 	 10.1581 	 8.6125 	 1.4085 	 62.5727 	 1.7969 	 57.8393 	 16.4689 	 4.7335 	 2.5200
  0.4100 	 1.6000 	 10.1607 	 8.6114 	 1.4054 	 62.4429 	 1.7957 	 57.9137 	 15.7045 	 4.5292 	 2.5200
  0.4100 	 1.6050 	 10.1633 	 8.6103 	 1.4022 	 62.3013 	 1.7945 	 57.9878 	 14.9063 	 4.3136 	 2.5200
  0.4100 	 1.6100 	 10.1659 	 8.6092 	 1.3991 	 62.1464 	 1.7932 	 58.0615 	 14.0685 	 4.0849 	 2.5200
  0.4100 	 1.6150 	 10.1685 	 8.6081 	 1.3960 	 61.9756 	 1.7920 	 58.1348 	 13.1836 	 3.8408 	 2.5200
  0.4100 	 1.6200 	 10.1711 	 8.6070 	 1.3929 	 61.7860 	 1.7909 	 58.2078 	 12.2412 	 3.5782 	 2.5200
  0.4100 	 1.6250 	 10.1736 	 8.6059 	 1.3898 	 61.5731 	 1.7897 	 58.2805 	 11.2269 	 3.2926 	 2.5200
  0.4100 	 1.6300 	 10.1761 	 8.6048 	 1.3868 	 61.3303 	 1.7885 	 58.3528 	 10.1190 	 2.9775 	 2.5200
  0.4100 	 1.6350 	 10.1787 	 8.6038 	 1.3837 	 61.0470 	 1.7873 	 58.4247 	 8.8823 	 2.6223 	 2.5200
  0.4100 	 1.6400 	 10.1812 	 8.6027 	 1.3807 	 60.7038 	 1.7862 	 58.4963 	 7.4531 	 2.2075 	 2.5200
  0.4100 	 1.6450 	 10.1837 	 8.6017 	 1.3777 	 60.2577 	 1.7851 	 58.5675 	 5.6878 	 1.6902 	 2.5200
  0.4100 	 1.4150 	 10.0472 	 8.6772 	 1.5400 	 63.7785 	 1.8541 	 54.8370 	 35.7169 	 8.9414 	 2.5300
  0.4100 	 1.4200 	 10.0505 	 8.6757 	 1.5360 	 63.7930 	 1.8524 	 54.9264 	 35.2717 	 8.8666 	 2.5300
  0.4100 	 1.4250 	 10.0539 	 8.6743 	 1.5321 	 63.8054 	 1.8507 	 55.0153 	 34.8241 	 8.7901 	 2.5300
  0.4100 	 1.4300 	 10.0572 	 8.6729 	 1.5283 	 63.8158 	 1.8490 	 55.1037 	 34.3740 	 8.7120 	 2.5300
  0.4100 	 1.4350 	 10.0605 	 8.6715 	 1.5244 	 63.8240 	 1.8474 	 55.1917 	 33.9212 	 8.6323 	 2.5300
  0.4100 	 1.4400 	 10.0637 	 8.6700 	 1.5206 	 63.8301 	 1.8457 	 55.2793 	 33.4655 	 8.5508 	 2.5300
  0.4100 	 1.4450 	 10.0670 	 8.6686 	 1.5168 	 63.8340 	 1.8441 	 55.3663 	 33.0070 	 8.4676 	 2.5300
  0.4100 	 1.4500 	 10.0702 	 8.6673 	 1.5130 	 63.8356 	 1.8424 	 55.4530 	 32.5453 	 8.3826 	 2.5300
  0.4100 	 1.4550 	 10.0734 	 8.6659 	 1.5092 	 63.8349 	 1.8408 	 55.5392 	 32.0803 	 8.2958 	 2.5300
  0.4100 	 1.4600 	 10.0766 	 8.6645 	 1.5055 	 63.8319 	 1.8392 	 55.6249 	 31.6118 	 8.2070 	 2.5300
  0.4100 	 1.4650 	 10.0797 	 8.6632 	 1.5018 	 63.8265 	 1.8376 	 55.7102 	 31.1397 	 8.1163 	 2.5300
  0.4100 	 1.4700 	 10.0828 	 8.6618 	 1.4981 	 63.8186 	 1.8361 	 55.7951 	 30.6638 	 8.0235 	 2.5300
  0.4100 	 1.4750 	 10.0860 	 8.6605 	 1.4944 	 63.8082 	 1.8345 	 55.8795 	 30.1837 	 7.9287 	 2.5300
  0.4100 	 1.4800 	 10.0890 	 8.6591 	 1.4908 	 63.7952 	 1.8330 	 55.9635 	 29.6994 	 7.8316 	 2.5300
  0.4100 	 1.4850 	 10.0921 	 8.6578 	 1.4871 	 63.7795 	 1.8315 	 56.0471 	 29.2105 	 7.7324 	 2.5300
  0.4100 	 1.4900 	 10.0952 	 8.6565 	 1.4835 	 63.7611 	 1.8300 	 56.1303 	 28.7167 	 7.6308 	 2.5300
  0.4100 	 1.4950 	 10.0982 	 8.6552 	 1.4799 	 63.7399 	 1.8285 	 56.2130 	 28.2179 	 7.5268 	 2.5300
  0.4100 	 1.5000 	 10.1012 	 8.6539 	 1.4764 	 63.7157 	 1.8270 	 56.2953 	 27.7136 	 7.4203 	 2.5300
  0.4100 	 1.5050 	 10.1042 	 8.6526 	 1.4728 	 63.6885 	 1.8255 	 56.3772 	 27.2036 	 7.3112 	 2.5300
  0.4100 	 1.5100 	 10.1071 	 8.6514 	 1.4693 	 63.6581 	 1.8241 	 56.4587 	 26.6874 	 7.1994 	 2.5300
  0.4100 	 1.5150 	 10.1101 	 8.6501 	 1.4658 	 63.6245 	 1.8226 	 56.5398 	 26.1647 	 7.0847 	 2.5300
  0.4100 	 1.5200 	 10.1130 	 8.6489 	 1.4623 	 63.5876 	 1.8212 	 56.6205 	 25.6351 	 6.9671 	 2.5300
  0.4100 	 1.5250 	 10.1159 	 8.6476 	 1.4589 	 63.5470 	 1.8198 	 56.7008 	 25.0980 	 6.8463 	 2.5300
  0.4100 	 1.5300 	 10.1188 	 8.6464 	 1.4555 	 63.5028 	 1.8184 	 56.7806 	 24.5529 	 6.7222 	 2.5300
  0.4100 	 1.5350 	 10.1217 	 8.6451 	 1.4520 	 63.4547 	 1.8170 	 56.8601 	 23.9993 	 6.5946 	 2.5300
  0.4100 	 1.5400 	 10.1245 	 8.6439 	 1.4486 	 63.4025 	 1.8156 	 56.9392 	 23.4366 	 6.4634 	 2.5300
  0.4100 	 1.5450 	 10.1274 	 8.6427 	 1.4453 	 63.3460 	 1.8142 	 57.0178 	 22.8639 	 6.3282 	 2.5300
  0.4100 	 1.5500 	 10.1302 	 8.6415 	 1.4419 	 63.2850 	 1.8129 	 57.0961 	 22.2805 	 6.1889 	 2.5300
  0.4100 	 1.5550 	 10.1330 	 8.6403 	 1.4386 	 63.2192 	 1.8116 	 57.1740 	 21.6855 	 6.0452 	 2.5300
  0.4100 	 1.5600 	 10.1358 	 8.6391 	 1.4353 	 63.1482 	 1.8102 	 57.2515 	 21.0779 	 5.8967 	 2.5300
  0.4100 	 1.5650 	 10.1385 	 8.6380 	 1.4320 	 63.0718 	 1.8089 	 57.3287 	 20.4565 	 5.7431 	 2.5300
  0.4100 	 1.5700 	 10.1413 	 8.6368 	 1.4287 	 62.9894 	 1.8076 	 57.4054 	 19.8200 	 5.5840 	 2.5300
  0.4100 	 1.5750 	 10.1440 	 8.6356 	 1.4254 	 62.9007 	 1.8063 	 57.4818 	 19.1668 	 5.4189 	 2.5300
  0.4100 	 1.5800 	 10.1467 	 8.6345 	 1.4222 	 62.8050 	 1.8050 	 57.5578 	 18.4951 	 5.2472 	 2.5300
  0.4100 	 1.5850 	 10.1494 	 8.6333 	 1.4189 	 62.7017 	 1.8038 	 57.6334 	 17.8027 	 5.0683 	 2.5300
  0.4100 	 1.5900 	 10.1521 	 8.6322 	 1.4157 	 62.5900 	 1.8025 	 57.7087 	 17.0872 	 4.8814 	 2.5300
  0.4100 	 1.5950 	 10.1547 	 8.6310 	 1.4125 	 62.4690 	 1.8012 	 57.7835 	 16.3454 	 4.6855 	 2.5300
  0.4100 	 1.6000 	 10.1574 	 8.6299 	 1.4094 	 62.3375 	 1.8000 	 57.8581 	 15.5735 	 4.4795 	 2.5300
  0.4100 	 1.6050 	 10.1600 	 8.6288 	 1.4062 	 62.1941 	 1.7988 	 57.9322 	 14.7668 	 4.2619 	 2.5300
  0.4100 	 1.6100 	 10.1626 	 8.6277 	 1.4031 	 62.0368 	 1.7976 	 58.0060 	 13.9191 	 4.0308 	 2.5300
  0.4100 	 1.6150 	 10.1652 	 8.6266 	 1.4000 	 61.8633 	 1.7964 	 58.0794 	 13.0225 	 3.7838 	 2.5300
  0.4100 	 1.6200 	 10.1678 	 8.6255 	 1.3969 	 61.6701 	 1.7952 	 58.1525 	 12.0658 	 3.5176 	 2.5300
  0.4100 	 1.6250 	 10.1703 	 8.6244 	 1.3938 	 61.4526 	 1.7940 	 58.2253 	 11.0335 	 3.2274 	 2.5300
  0.4100 	 1.6300 	 10.1729 	 8.6233 	 1.3907 	 61.2036 	 1.7928 	 58.2976 	 9.9018 	 2.9060 	 2.5300
  0.4100 	 1.6350 	 10.1754 	 8.6223 	 1.3876 	 60.9112 	 1.7916 	 58.3697 	 8.6318 	 2.5416 	 2.5300
  0.4100 	 1.6400 	 10.1779 	 8.6212 	 1.3846 	 60.5535 	 1.7905 	 58.4413 	 7.1498 	 2.1121 	 2.5300
  0.4100 	 1.6450 	 10.1804 	 8.6201 	 1.3816 	 60.0777 	 1.7893 	 58.5127 	 5.2804 	 1.5650 	 2.5300
  0.4100 	 1.4150 	 10.0434 	 8.6960 	 1.5444 	 63.6869 	 1.8588 	 54.7784 	 35.6840 	 8.9085 	 2.5400
  0.4100 	 1.4200 	 10.0468 	 8.6945 	 1.5404 	 63.7014 	 1.8570 	 54.8679 	 35.2376 	 8.8336 	 2.5400
  0.4100 	 1.4250 	 10.0501 	 8.6931 	 1.5365 	 63.7139 	 1.8553 	 54.9569 	 34.7888 	 8.7570 	 2.5400
  0.4100 	 1.4300 	 10.0535 	 8.6916 	 1.5326 	 63.7242 	 1.8536 	 55.0454 	 34.3375 	 8.6788 	 2.5400
  0.4100 	 1.4350 	 10.0568 	 8.6902 	 1.5288 	 63.7324 	 1.8519 	 55.1335 	 33.8834 	 8.5990 	 2.5400
  0.4100 	 1.4400 	 10.0600 	 8.6888 	 1.5249 	 63.7385 	 1.8503 	 55.2211 	 33.4265 	 8.5174 	 2.5400
  0.4100 	 1.4450 	 10.0633 	 8.6874 	 1.5211 	 63.7423 	 1.8486 	 55.3082 	 32.9666 	 8.4341 	 2.5400
  0.4100 	 1.4500 	 10.0665 	 8.6860 	 1.5173 	 63.7439 	 1.8470 	 55.3950 	 32.5036 	 8.3490 	 2.5400
  0.4100 	 1.4550 	 10.0697 	 8.6846 	 1.5135 	 63.7432 	 1.8454 	 55.4812 	 32.0372 	 8.2620 	 2.5400
  0.4100 	 1.4600 	 10.0729 	 8.6832 	 1.5098 	 63.7401 	 1.8438 	 55.5671 	 31.5674 	 8.1731 	 2.5400
  0.4100 	 1.4650 	 10.0761 	 8.6819 	 1.5060 	 63.7346 	 1.8422 	 55.6525 	 31.0938 	 8.0822 	 2.5400
  0.4100 	 1.4700 	 10.0792 	 8.6805 	 1.5023 	 63.7267 	 1.8406 	 55.7374 	 30.6163 	 7.9893 	 2.5400
  0.4100 	 1.4750 	 10.0823 	 8.6792 	 1.4987 	 63.7162 	 1.8390 	 55.8219 	 30.1347 	 7.8942 	 2.5400
  0.4100 	 1.4800 	 10.0854 	 8.6778 	 1.4950 	 63.7031 	 1.8375 	 55.9060 	 29.6487 	 7.7970 	 2.5400
  0.4100 	 1.4850 	 10.0885 	 8.6765 	 1.4914 	 63.6873 	 1.8360 	 55.9897 	 29.1581 	 7.6976 	 2.5400
  0.4100 	 1.4900 	 10.0916 	 8.6752 	 1.4878 	 63.6688 	 1.8345 	 56.0729 	 28.6627 	 7.5958 	 2.5400
  0.4100 	 1.4950 	 10.0946 	 8.6739 	 1.4842 	 63.6474 	 1.8330 	 56.1558 	 28.1620 	 7.4916 	 2.5400
  0.4100 	 1.5000 	 10.0976 	 8.6726 	 1.4806 	 63.6230 	 1.8315 	 56.2382 	 27.6559 	 7.3849 	 2.5400
  0.4100 	 1.5050 	 10.1006 	 8.6713 	 1.4770 	 63.5957 	 1.8300 	 56.3202 	 27.1439 	 7.2755 	 2.5400
  0.4100 	 1.5100 	 10.1036 	 8.6700 	 1.4735 	 63.5651 	 1.8285 	 56.4017 	 26.6257 	 7.1634 	 2.5400
  0.4100 	 1.5150 	 10.1066 	 8.6687 	 1.4700 	 63.5313 	 1.8271 	 56.4829 	 26.1009 	 7.0484 	 2.5400
  0.4100 	 1.5200 	 10.1095 	 8.6675 	 1.4665 	 63.4941 	 1.8256 	 56.5637 	 25.5690 	 6.9304 	 2.5400
  0.4100 	 1.5250 	 10.1124 	 8.6662 	 1.4630 	 63.4533 	 1.8242 	 56.6440 	 25.0296 	 6.8093 	 2.5400
  0.4100 	 1.5300 	 10.1153 	 8.6650 	 1.4596 	 63.4087 	 1.8228 	 56.7240 	 24.4820 	 6.6848 	 2.5400
  0.4100 	 1.5350 	 10.1182 	 8.6637 	 1.4562 	 63.3603 	 1.8214 	 56.8035 	 23.9259 	 6.5568 	 2.5400
  0.4100 	 1.5400 	 10.1211 	 8.6625 	 1.4528 	 63.3078 	 1.8200 	 56.8827 	 23.3604 	 6.4251 	 2.5400
  0.4100 	 1.5450 	 10.1239 	 8.6613 	 1.4494 	 63.2509 	 1.8187 	 56.9614 	 22.7848 	 6.2894 	 2.5400
  0.4100 	 1.5500 	 10.1267 	 8.6601 	 1.4460 	 63.1894 	 1.8173 	 57.0398 	 22.1983 	 6.1496 	 2.5400
  0.4100 	 1.5550 	 10.1295 	 8.6589 	 1.4427 	 63.1231 	 1.8160 	 57.1178 	 21.6000 	 6.0053 	 2.5400
  0.4100 	 1.5600 	 10.1323 	 8.6577 	 1.4393 	 63.0515 	 1.8146 	 57.1954 	 20.9889 	 5.8561 	 2.5400
  0.4100 	 1.5650 	 10.1351 	 8.6565 	 1.4360 	 62.9744 	 1.8133 	 57.2726 	 20.3637 	 5.7018 	 2.5400
  0.4100 	 1.5700 	 10.1379 	 8.6553 	 1.4327 	 62.8913 	 1.8120 	 57.3494 	 19.7230 	 5.5419 	 2.5400
  0.4100 	 1.5750 	 10.1406 	 8.6541 	 1.4295 	 62.8018 	 1.8107 	 57.4259 	 19.0654 	 5.3759 	 2.5400
  0.4100 	 1.5800 	 10.1433 	 8.6530 	 1.4262 	 62.7052 	 1.8094 	 57.5020 	 18.3888 	 5.2032 	 2.5400
  0.4100 	 1.5850 	 10.1460 	 8.6518 	 1.4230 	 62.6008 	 1.8081 	 57.5777 	 17.6911 	 5.0231 	 2.5400
  0.4100 	 1.5900 	 10.1487 	 8.6507 	 1.4198 	 62.4879 	 1.8068 	 57.6530 	 16.9696 	 4.8349 	 2.5400
  0.4100 	 1.5950 	 10.1514 	 8.6495 	 1.4166 	 62.3655 	 1.8056 	 57.7280 	 16.2211 	 4.6375 	 2.5400
  0.4100 	 1.6000 	 10.1540 	 8.6484 	 1.4134 	 62.2324 	 1.8043 	 57.8026 	 15.4416 	 4.4298 	 2.5400
  0.4100 	 1.6050 	 10.1567 	 8.6473 	 1.4102 	 62.0870 	 1.8031 	 57.8768 	 14.6262 	 4.2101 	 2.5400
  0.4100 	 1.6100 	 10.1593 	 8.6462 	 1.4071 	 61.9273 	 1.8019 	 57.9507 	 13.7683 	 3.9766 	 2.5400
  0.4100 	 1.6150 	 10.1619 	 8.6451 	 1.4039 	 61.7509 	 1.8007 	 58.0242 	 12.8595 	 3.7266 	 2.5400
  0.4100 	 1.6200 	 10.1645 	 8.6440 	 1.4008 	 61.5540 	 1.7995 	 58.0974 	 11.8880 	 3.4567 	 2.5400
  0.4100 	 1.6250 	 10.1670 	 8.6429 	 1.3977 	 61.3317 	 1.7983 	 58.1702 	 10.8369 	 3.1615 	 2.5400
  0.4100 	 1.6300 	 10.1696 	 8.6418 	 1.3946 	 61.0761 	 1.7971 	 58.2426 	 9.6802 	 2.8334 	 2.5400
  0.4100 	 1.6350 	 10.1721 	 8.6407 	 1.3916 	 60.7740 	 1.7959 	 58.3148 	 8.3741 	 2.4592 	 2.5400
  0.4100 	 1.6400 	 10.1747 	 8.6396 	 1.3885 	 60.3999 	 1.7948 	 58.3865 	 6.8336 	 2.0134 	 2.5400
  0.4100 	 1.4150 	 10.0397 	 8.7148 	 1.5488 	 63.5958 	 1.8634 	 54.7200 	 35.6510 	 8.8758 	 2.5500
  0.4100 	 1.4200 	 10.0430 	 8.7133 	 1.5448 	 63.6103 	 1.8617 	 54.8095 	 35.2035 	 8.8008 	 2.5500
  0.4100 	 1.4250 	 10.0464 	 8.7118 	 1.5409 	 63.6227 	 1.8599 	 54.8986 	 34.7535 	 8.7241 	 2.5500
  0.4100 	 1.4300 	 10.0497 	 8.7104 	 1.5370 	 63.6330 	 1.8582 	 54.9872 	 34.3009 	 8.6458 	 2.5500
  0.4100 	 1.4350 	 10.0530 	 8.7089 	 1.5331 	 63.6412 	 1.8565 	 55.0753 	 33.8457 	 8.5659 	 2.5500
  0.4100 	 1.4400 	 10.0563 	 8.7075 	 1.5293 	 63.6473 	 1.8549 	 55.1630 	 33.3875 	 8.4842 	 2.5500
  0.4100 	 1.4450 	 10.0596 	 8.7061 	 1.5254 	 63.6511 	 1.8532 	 55.2503 	 32.9263 	 8.4008 	 2.5500
  0.4100 	 1.4500 	 10.0628 	 8.7047 	 1.5216 	 63.6526 	 1.8516 	 55.3371 	 32.4619 	 8.3155 	 2.5500
  0.4100 	 1.4550 	 10.0661 	 8.7033 	 1.5178 	 63.6518 	 1.8499 	 55.4235 	 31.9942 	 8.2284 	 2.5500
  0.4100 	 1.4600 	 10.0693 	 8.7019 	 1.5141 	 63.6487 	 1.8483 	 55.5094 	 31.5228 	 8.1393 	 2.5500
  0.4100 	 1.4650 	 10.0724 	 8.7005 	 1.5103 	 63.6432 	 1.8467 	 55.5948 	 31.0478 	 8.0483 	 2.5500
  0.4100 	 1.4700 	 10.0756 	 8.6992 	 1.5066 	 63.6351 	 1.8451 	 55.6799 	 30.5688 	 7.9552 	 2.5500
  0.4100 	 1.4750 	 10.0787 	 8.6978 	 1.5029 	 63.6245 	 1.8436 	 55.7645 	 30.0856 	 7.8600 	 2.5500
  0.4100 	 1.4800 	 10.0818 	 8.6965 	 1.4993 	 63.6113 	 1.8420 	 55.8487 	 29.5980 	 7.7626 	 2.5500
  0.4100 	 1.4850 	 10.0849 	 8.6951 	 1.4956 	 63.5954 	 1.8405 	 55.9324 	 29.1058 	 7.6630 	 2.5500
  0.4100 	 1.4900 	 10.0880 	 8.6938 	 1.4920 	 63.5768 	 1.8390 	 56.0158 	 28.6085 	 7.5610 	 2.5500
  0.4100 	 1.4950 	 10.0910 	 8.6925 	 1.4884 	 63.5552 	 1.8374 	 56.0987 	 28.1061 	 7.4566 	 2.5500
  0.4100 	 1.5000 	 10.0941 	 8.6912 	 1.4848 	 63.5307 	 1.8359 	 56.1811 	 27.5981 	 7.3496 	 2.5500
  0.4100 	 1.5050 	 10.0971 	 8.6899 	 1.4812 	 63.5032 	 1.8345 	 56.2632 	 27.0841 	 7.2399 	 2.5500
  0.4100 	 1.5100 	 10.1001 	 8.6886 	 1.4777 	 63.4724 	 1.8330 	 56.3449 	 26.5639 	 7.1276 	 2.5500
  0.4100 	 1.5150 	 10.1030 	 8.6873 	 1.4742 	 63.4384 	 1.8315 	 56.4261 	 26.0369 	 7.0123 	 2.5500
  0.4100 	 1.5200 	 10.1060 	 8.6861 	 1.4707 	 63.4009 	 1.8301 	 56.5070 	 25.5028 	 6.8939 	 2.5500
  0.4100 	 1.5250 	 10.1089 	 8.6848 	 1.4672 	 63.3598 	 1.8287 	 56.5874 	 24.9610 	 6.7724 	 2.5500
  0.4100 	 1.5300 	 10.1118 	 8.6835 	 1.4637 	 63.3150 	 1.8272 	 56.6674 	 24.4110 	 6.6476 	 2.5500
  0.4100 	 1.5350 	 10.1147 	 8.6823 	 1.4603 	 63.2662 	 1.8258 	 56.7471 	 23.8522 	 6.5191 	 2.5500
  0.4100 	 1.5400 	 10.1176 	 8.6811 	 1.4569 	 63.2133 	 1.8244 	 56.8263 	 23.2840 	 6.3870 	 2.5500
  0.4100 	 1.5450 	 10.1205 	 8.6798 	 1.4535 	 63.1560 	 1.8231 	 56.9052 	 22.7055 	 6.2508 	 2.5500
  0.4100 	 1.5500 	 10.1233 	 8.6786 	 1.4501 	 63.0941 	 1.8217 	 56.9836 	 22.1159 	 6.1105 	 2.5500
  0.4100 	 1.5550 	 10.1261 	 8.6774 	 1.4467 	 63.0272 	 1.8203 	 57.0617 	 21.5143 	 5.9655 	 2.5500
  0.4100 	 1.5600 	 10.1289 	 8.6762 	 1.4434 	 62.9551 	 1.8190 	 57.1394 	 20.8996 	 5.8157 	 2.5500
  0.4100 	 1.5650 	 10.1317 	 8.6750 	 1.4401 	 62.8774 	 1.8177 	 57.2167 	 20.2705 	 5.6607 	 2.5500
  0.4100 	 1.5700 	 10.1345 	 8.6738 	 1.4368 	 62.7935 	 1.8164 	 57.2936 	 19.6257 	 5.5000 	 2.5500
  0.4100 	 1.5750 	 10.1372 	 8.6726 	 1.4335 	 62.7032 	 1.8150 	 57.3701 	 18.9635 	 5.3330 	 2.5500
  0.4100 	 1.5800 	 10.1399 	 8.6715 	 1.4302 	 62.6056 	 1.8137 	 57.4463 	 18.2820 	 5.1593 	 2.5500
  0.4100 	 1.5850 	 10.1427 	 8.6703 	 1.4270 	 62.5002 	 1.8125 	 57.5221 	 17.5788 	 4.9781 	 2.5500
  0.4100 	 1.5900 	 10.1454 	 8.6692 	 1.4238 	 62.3861 	 1.8112 	 57.5975 	 16.8513 	 4.7886 	 2.5500
  0.4100 	 1.5950 	 10.1480 	 8.6680 	 1.4206 	 62.2622 	 1.8099 	 57.6726 	 16.0959 	 4.5896 	 2.5500
  0.4100 	 1.6000 	 10.1507 	 8.6669 	 1.4174 	 62.1274 	 1.8087 	 57.7472 	 15.3087 	 4.3801 	 2.5500
  0.4100 	 1.6050 	 10.1533 	 8.6657 	 1.4142 	 61.9799 	 1.8074 	 57.8216 	 14.4844 	 4.1584 	 2.5500
  0.4100 	 1.6100 	 10.1560 	 8.6646 	 1.4110 	 61.8178 	 1.8062 	 57.8955 	 13.6161 	 3.9223 	 2.5500
  0.4100 	 1.6150 	 10.1586 	 8.6635 	 1.4079 	 61.6384 	 1.8050 	 57.9691 	 12.6947 	 3.6692 	 2.5500
  0.4100 	 1.6200 	 10.1612 	 8.6624 	 1.4048 	 61.4377 	 1.8038 	 58.0424 	 11.7078 	 3.3953 	 2.5500
  0.4100 	 1.6250 	 10.1638 	 8.6613 	 1.4017 	 61.2103 	 1.8026 	 58.1153 	 10.6369 	 3.0951 	 2.5500
  0.4100 	 1.6300 	 10.1663 	 8.6602 	 1.3986 	 60.9477 	 1.8014 	 58.1878 	 9.4536 	 2.7599 	 2.5500
  0.4100 	 1.6350 	 10.1689 	 8.6591 	 1.3955 	 60.6351 	 1.8002 	 58.2600 	 8.1087 	 2.3751 	 2.5500
  0.4100 	 1.6400 	 10.1714 	 8.6580 	 1.3925 	 60.2427 	 1.7990 	 58.3318 	 6.5025 	 1.9109 	 2.5500
  0.4100 	 1.4150 	 10.0359 	 8.7335 	 1.5532 	 63.5049 	 1.8680 	 54.6617 	 35.6180 	 8.8433 	 2.5600
  0.4100 	 1.4200 	 10.0393 	 8.7320 	 1.5492 	 63.5194 	 1.8663 	 54.7513 	 35.1693 	 8.7682 	 2.5600
  0.4100 	 1.4250 	 10.0427 	 8.7306 	 1.5453 	 63.5319 	 1.8645 	 54.8404 	 34.7182 	 8.6914 	 2.5600
  0.4100 	 1.4300 	 10.0460 	 8.7291 	 1.5414 	 63.5422 	 1.8628 	 54.9291 	 34.2644 	 8.6131 	 2.5600
  0.4100 	 1.4350 	 10.0493 	 8.7277 	 1.5375 	 63.5504 	 1.8611 	 55.0174 	 33.8079 	 8.5330 	 2.5600
  0.4100 	 1.4400 	 10.0526 	 8.7262 	 1.5336 	 63.5564 	 1.8594 	 55.1052 	 33.3484 	 8.4512 	 2.5600
  0.4100 	 1.4450 	 10.0559 	 8.7248 	 1.5298 	 63.5602 	 1.8578 	 55.1925 	 32.8859 	 8.3677 	 2.5600
  0.4100 	 1.4500 	 10.0592 	 8.7234 	 1.5259 	 63.5617 	 1.8561 	 55.2794 	 32.4202 	 8.2823 	 2.5600
  0.4100 	 1.4550 	 10.0624 	 8.7220 	 1.5221 	 63.5608 	 1.8545 	 55.3658 	 31.9510 	 8.1950 	 2.5600
  0.4100 	 1.4600 	 10.0656 	 8.7206 	 1.5184 	 63.5576 	 1.8529 	 55.4518 	 31.4783 	 8.1058 	 2.5600
  0.4100 	 1.4650 	 10.0688 	 8.7192 	 1.5146 	 63.5520 	 1.8513 	 55.5374 	 31.0018 	 8.0146 	 2.5600
  0.4100 	 1.4700 	 10.0720 	 8.7178 	 1.5109 	 63.5439 	 1.8497 	 55.6225 	 30.5213 	 7.9214 	 2.5600
  0.4100 	 1.4750 	 10.0751 	 8.7165 	 1.5072 	 63.5332 	 1.8481 	 55.7072 	 30.0365 	 7.8260 	 2.5600
  0.4100 	 1.4800 	 10.0782 	 8.7151 	 1.5035 	 63.5199 	 1.8465 	 55.7915 	 29.5473 	 7.7284 	 2.5600
  0.4100 	 1.4850 	 10.0813 	 8.7138 	 1.4998 	 63.5039 	 1.8450 	 55.8753 	 29.0533 	 7.6286 	 2.5600
  0.4100 	 1.4900 	 10.0844 	 8.7124 	 1.4962 	 63.4851 	 1.8434 	 55.9587 	 28.5544 	 7.5264 	 2.5600
  0.4100 	 1.4950 	 10.0875 	 8.7111 	 1.4926 	 63.4634 	 1.8419 	 56.0417 	 28.0501 	 7.4217 	 2.5600
  0.4100 	 1.5000 	 10.0905 	 8.7098 	 1.4890 	 63.4388 	 1.8404 	 56.1243 	 27.5402 	 7.3145 	 2.5600
  0.4100 	 1.5050 	 10.0935 	 8.7085 	 1.4854 	 63.4110 	 1.8389 	 56.2064 	 27.0243 	 7.2046 	 2.5600
  0.4100 	 1.5100 	 10.0965 	 8.7072 	 1.4819 	 63.3801 	 1.8374 	 56.2882 	 26.5020 	 7.0919 	 2.5600
  0.4100 	 1.5150 	 10.0995 	 8.7059 	 1.4783 	 63.3458 	 1.8360 	 56.3695 	 25.9729 	 6.9763 	 2.5600
  0.4100 	 1.5200 	 10.1025 	 8.7046 	 1.4748 	 63.3081 	 1.8345 	 56.4505 	 25.4365 	 6.8577 	 2.5600
  0.4100 	 1.5250 	 10.1054 	 8.7033 	 1.4713 	 63.2668 	 1.8331 	 56.5310 	 24.8924 	 6.7358 	 2.5600
  0.4100 	 1.5300 	 10.1084 	 8.7021 	 1.4679 	 63.2216 	 1.8317 	 56.6111 	 24.3399 	 6.6105 	 2.5600
  0.4100 	 1.5350 	 10.1113 	 8.7008 	 1.4644 	 63.1725 	 1.8303 	 56.6908 	 23.7785 	 6.4817 	 2.5600
  0.4100 	 1.5400 	 10.1141 	 8.6996 	 1.4610 	 63.1192 	 1.8289 	 56.7701 	 23.2074 	 6.3491 	 2.5600
  0.4100 	 1.5450 	 10.1170 	 8.6984 	 1.4576 	 63.0615 	 1.8275 	 56.8491 	 22.6260 	 6.2124 	 2.5600
  0.4100 	 1.5500 	 10.1199 	 8.6971 	 1.4542 	 62.9991 	 1.8261 	 56.9276 	 22.0333 	 6.0715 	 2.5600
  0.4100 	 1.5550 	 10.1227 	 8.6959 	 1.4508 	 62.9317 	 1.8247 	 57.0058 	 21.4283 	 5.9259 	 2.5600
  0.4100 	 1.5600 	 10.1255 	 8.6947 	 1.4475 	 62.8590 	 1.8234 	 57.0835 	 20.8100 	 5.7755 	 2.5600
  0.4100 	 1.5650 	 10.1283 	 8.6935 	 1.4442 	 62.7806 	 1.8220 	 57.1609 	 20.1771 	 5.6197 	 2.5600
  0.4100 	 1.5700 	 10.1311 	 8.6923 	 1.4408 	 62.6960 	 1.8207 	 57.2379 	 19.5281 	 5.4581 	 2.5600
  0.4100 	 1.5750 	 10.1338 	 8.6911 	 1.4375 	 62.6048 	 1.8194 	 57.3145 	 18.8613 	 5.2903 	 2.5600
  0.4100 	 1.5800 	 10.1366 	 8.6899 	 1.4343 	 62.5063 	 1.8181 	 57.3908 	 18.1747 	 5.1155 	 2.5600
  0.4100 	 1.5850 	 10.1393 	 8.6888 	 1.4310 	 62.3998 	 1.8168 	 57.4667 	 17.4660 	 4.9331 	 2.5600
  0.4100 	 1.5900 	 10.1420 	 8.6876 	 1.4278 	 62.2844 	 1.8155 	 57.5422 	 16.7323 	 4.7422 	 2.5600
  0.4100 	 1.5950 	 10.1447 	 8.6865 	 1.4246 	 62.1591 	 1.8143 	 57.6173 	 15.9700 	 4.5418 	 2.5600
  0.4100 	 1.6000 	 10.1474 	 8.6853 	 1.4214 	 62.0225 	 1.8130 	 57.6921 	 15.1749 	 4.3304 	 2.5600
  0.4100 	 1.6050 	 10.1500 	 8.6842 	 1.4182 	 61.8730 	 1.8118 	 57.7665 	 14.3414 	 4.1065 	 2.5600
  0.4100 	 1.6100 	 10.1527 	 8.6830 	 1.4150 	 61.7084 	 1.8105 	 57.8405 	 13.4623 	 3.8679 	 2.5600
  0.4100 	 1.6150 	 10.1553 	 8.6819 	 1.4119 	 61.5258 	 1.8093 	 57.9142 	 12.5280 	 3.6116 	 2.5600
  0.4100 	 1.6200 	 10.1579 	 8.6808 	 1.4087 	 61.3211 	 1.8081 	 57.9875 	 11.5250 	 3.3336 	 2.5600
  0.4100 	 1.6250 	 10.1605 	 8.6797 	 1.4056 	 61.0884 	 1.8069 	 58.0605 	 10.4335 	 3.0279 	 2.5600
  0.4100 	 1.6300 	 10.1631 	 8.6786 	 1.4025 	 60.8183 	 1.8057 	 58.1331 	 9.2219 	 2.6852 	 2.5600
  0.4100 	 1.6350 	 10.1656 	 8.6775 	 1.3994 	 60.4942 	 1.8045 	 58.2054 	 7.8347 	 2.2888 	 2.5600
  0.4100 	 1.6400 	 10.1682 	 8.6764 	 1.3964 	 60.0811 	 1.8033 	 58.2773 	 6.1541 	 1.8038 	 2.5600
  0.4100 	 1.4150 	 10.0321 	 8.7522 	 1.5576 	 63.4145 	 1.8726 	 54.6035 	 35.5849 	 8.8110 	 2.5700
  0.4100 	 1.4200 	 10.0355 	 8.7507 	 1.5536 	 63.4290 	 1.8709 	 54.6932 	 35.1351 	 8.7357 	 2.5700
  0.4100 	 1.4250 	 10.0389 	 8.7493 	 1.5497 	 63.4414 	 1.8691 	 54.7825 	 34.6828 	 8.6589 	 2.5700
  0.4100 	 1.4300 	 10.0423 	 8.7478 	 1.5457 	 63.4517 	 1.8674 	 54.8713 	 34.2278 	 8.5805 	 2.5700
  0.4100 	 1.4350 	 10.0456 	 8.7463 	 1.5418 	 63.4599 	 1.8657 	 54.9596 	 33.7700 	 8.5003 	 2.5700
  0.4100 	 1.4400 	 10.0489 	 8.7449 	 1.5379 	 63.4659 	 1.8640 	 55.0475 	 33.3093 	 8.4184 	 2.5700
  0.4100 	 1.4450 	 10.0522 	 8.7435 	 1.5341 	 63.4696 	 1.8623 	 55.1349 	 32.8455 	 8.3347 	 2.5700
  0.4100 	 1.4500 	 10.0555 	 8.7420 	 1.5302 	 63.4711 	 1.8607 	 55.2218 	 32.3784 	 8.2492 	 2.5700
  0.4100 	 1.4550 	 10.0587 	 8.7406 	 1.5264 	 63.4702 	 1.8590 	 55.3084 	 31.9079 	 8.1618 	 2.5700
  0.4100 	 1.4600 	 10.0620 	 8.7392 	 1.5227 	 63.4669 	 1.8574 	 55.3945 	 31.4337 	 8.0725 	 2.5700
  0.4100 	 1.4650 	 10.0652 	 8.7378 	 1.5189 	 63.4613 	 1.8558 	 55.4801 	 30.9557 	 7.9811 	 2.5700
  0.4100 	 1.4700 	 10.0683 	 8.7364 	 1.5152 	 63.4531 	 1.8542 	 55.5653 	 30.4737 	 7.8877 	 2.5700
  0.4100 	 1.4750 	 10.0715 	 8.7351 	 1.5114 	 63.4423 	 1.8526 	 55.6501 	 29.9873 	 7.7922 	 2.5700
  0.4100 	 1.4800 	 10.0746 	 8.7337 	 1.5077 	 63.4289 	 1.8510 	 55.7344 	 29.4965 	 7.6944 	 2.5700
  0.4100 	 1.4850 	 10.0778 	 8.7324 	 1.5041 	 63.4128 	 1.8495 	 55.8184 	 29.0009 	 7.5944 	 2.5700
  0.4100 	 1.4900 	 10.0808 	 8.7310 	 1.5004 	 63.3938 	 1.8479 	 55.9019 	 28.5001 	 7.4920 	 2.5700
  0.4100 	 1.4950 	 10.0839 	 8.7297 	 1.4968 	 63.3720 	 1.8464 	 55.9849 	 27.9940 	 7.3871 	 2.5700
  0.4100 	 1.5000 	 10.0870 	 8.7284 	 1.4932 	 63.3472 	 1.8449 	 56.0676 	 27.4822 	 7.2796 	 2.5700
  0.4100 	 1.5050 	 10.0900 	 8.7270 	 1.4896 	 63.3192 	 1.8434 	 56.1498 	 26.9643 	 7.1694 	 2.5700
  0.4100 	 1.5100 	 10.0930 	 8.7257 	 1.4860 	 63.2881 	 1.8419 	 56.2317 	 26.4400 	 7.0565 	 2.5700
  0.4100 	 1.5150 	 10.0960 	 8.7244 	 1.4825 	 63.2536 	 1.8404 	 56.3131 	 25.9087 	 6.9405 	 2.5700
  0.4100 	 1.5200 	 10.0990 	 8.7232 	 1.4790 	 63.2156 	 1.8390 	 56.3941 	 25.3701 	 6.8216 	 2.5700
  0.4100 	 1.5250 	 10.1019 	 8.7219 	 1.4755 	 63.1740 	 1.8375 	 56.4747 	 24.8236 	 6.6993 	 2.5700
  0.4100 	 1.5300 	 10.1049 	 8.7206 	 1.4720 	 63.1286 	 1.8361 	 56.5549 	 24.2686 	 6.5737 	 2.5700
  0.4100 	 1.5350 	 10.1078 	 8.7193 	 1.4685 	 63.0791 	 1.8347 	 56.6347 	 23.7045 	 6.4444 	 2.5700
  0.4100 	 1.5400 	 10.1107 	 8.7181 	 1.4651 	 63.0254 	 1.8333 	 56.7141 	 23.1307 	 6.3113 	 2.5700
  0.4100 	 1.5450 	 10.1136 	 8.7169 	 1.4617 	 62.9673 	 1.8319 	 56.7931 	 22.5463 	 6.1742 	 2.5700
  0.4100 	 1.5500 	 10.1164 	 8.7156 	 1.4583 	 62.9044 	 1.8305 	 56.8717 	 21.9504 	 6.0327 	 2.5700
  0.4100 	 1.5550 	 10.1193 	 8.7144 	 1.4549 	 62.8365 	 1.8291 	 56.9500 	 21.3421 	 5.8865 	 2.5700
  0.4100 	 1.5600 	 10.1221 	 8.7132 	 1.4516 	 62.7632 	 1.8278 	 57.0278 	 20.7201 	 5.7354 	 2.5700
  0.4100 	 1.5650 	 10.1249 	 8.7120 	 1.4482 	 62.6841 	 1.8264 	 57.1053 	 20.0833 	 5.5788 	 2.5700
  0.4100 	 1.5700 	 10.1277 	 8.7108 	 1.4449 	 62.5988 	 1.8251 	 57.1824 	 19.4300 	 5.4164 	 2.5700
  0.4100 	 1.5750 	 10.1305 	 8.7096 	 1.4416 	 62.5067 	 1.8238 	 57.2591 	 18.7586 	 5.2477 	 2.5700
  0.4100 	 1.5800 	 10.1332 	 8.7084 	 1.4383 	 62.4073 	 1.8225 	 57.3354 	 18.0670 	 5.0718 	 2.5700
  0.4100 	 1.5850 	 10.1359 	 8.7072 	 1.4350 	 62.2996 	 1.8212 	 57.4114 	 17.3526 	 4.8883 	 2.5700
  0.4100 	 1.5900 	 10.1387 	 8.7060 	 1.4318 	 62.1829 	 1.8199 	 57.4869 	 16.6126 	 4.6960 	 2.5700
  0.4100 	 1.5950 	 10.1414 	 8.7049 	 1.4286 	 62.0561 	 1.8186 	 57.5622 	 15.8432 	 4.4939 	 2.5700
  0.4100 	 1.6000 	 10.1440 	 8.7037 	 1.4253 	 61.9177 	 1.8173 	 57.6370 	 15.0400 	 4.2807 	 2.5700
  0.4100 	 1.6050 	 10.1467 	 8.7026 	 1.4222 	 61.7661 	 1.8161 	 57.7115 	 14.1971 	 4.0546 	 2.5700
  0.4100 	 1.6100 	 10.1494 	 8.7014 	 1.4190 	 61.5989 	 1.8148 	 57.7856 	 13.3070 	 3.8133 	 2.5700
  0.4100 	 1.6150 	 10.1520 	 8.7003 	 1.4158 	 61.4130 	 1.8136 	 57.8594 	 12.3593 	 3.5536 	 2.5700
  0.4100 	 1.6200 	 10.1546 	 8.6992 	 1.4127 	 61.2042 	 1.8124 	 57.9328 	 11.3395 	 3.2714 	 2.5700
  0.4100 	 1.6250 	 10.1572 	 8.6981 	 1.4096 	 60.9659 	 1.8112 	 58.0059 	 10.2262 	 2.9601 	 2.5700
  0.4100 	 1.6300 	 10.1598 	 8.6970 	 1.4064 	 60.6879 	 1.8100 	 58.0786 	 8.9845 	 2.6093 	 2.5700
  0.4100 	 1.6350 	 10.1624 	 8.6959 	 1.4034 	 60.3512 	 1.8088 	 58.1509 	 7.5511 	 2.2003 	 2.5700
  0.4100 	 1.6400 	 10.1649 	 8.6948 	 1.4003 	 59.9142 	 1.8076 	 58.2229 	 5.7853 	 1.6913 	 2.5700
  0.4100 	 1.4150 	 10.0284 	 8.7709 	 1.5620 	 63.3244 	 1.8773 	 54.5456 	 35.5519 	 8.7788 	 2.5800
  0.4100 	 1.4200 	 10.0318 	 8.7694 	 1.5580 	 63.3389 	 1.8755 	 54.6354 	 35.1009 	 8.7035 	 2.5800
  0.4100 	 1.4250 	 10.0352 	 8.7679 	 1.5540 	 63.3513 	 1.8737 	 54.7247 	 34.6474 	 8.6266 	 2.5800
  0.4100 	 1.4300 	 10.0386 	 8.7665 	 1.5501 	 63.3616 	 1.8720 	 54.8135 	 34.1912 	 8.5481 	 2.5800
  0.4100 	 1.4350 	 10.0419 	 8.7650 	 1.5462 	 63.3697 	 1.8703 	 54.9020 	 33.7322 	 8.4678 	 2.5800
  0.4100 	 1.4400 	 10.0452 	 8.7635 	 1.5423 	 63.3757 	 1.8686 	 54.9899 	 33.2702 	 8.3858 	 2.5800
  0.4100 	 1.4450 	 10.0485 	 8.7621 	 1.5384 	 63.3794 	 1.8669 	 55.0774 	 32.8050 	 8.3020 	 2.5800
  0.4100 	 1.4500 	 10.0518 	 8.7607 	 1.5346 	 63.3808 	 1.8652 	 55.1645 	 32.3366 	 8.2164 	 2.5800
  0.4100 	 1.4550 	 10.0551 	 8.7592 	 1.5307 	 63.3799 	 1.8636 	 55.2511 	 31.8647 	 8.1288 	 2.5800
  0.4100 	 1.4600 	 10.0583 	 8.7578 	 1.5269 	 63.3766 	 1.8619 	 55.3372 	 31.3891 	 8.0394 	 2.5800
  0.4100 	 1.4650 	 10.0615 	 8.7564 	 1.5232 	 63.3708 	 1.8603 	 55.4230 	 30.9096 	 7.9479 	 2.5800
  0.4100 	 1.4700 	 10.0647 	 8.7550 	 1.5194 	 63.3626 	 1.8587 	 55.5083 	 30.4260 	 7.8543 	 2.5800
  0.4100 	 1.4750 	 10.0679 	 8.7537 	 1.5157 	 63.3517 	 1.8571 	 55.5931 	 29.9381 	 7.7586 	 2.5800
  0.4100 	 1.4800 	 10.0710 	 8.7523 	 1.5120 	 63.3382 	 1.8555 	 55.6776 	 29.4457 	 7.6606 	 2.5800
  0.4100 	 1.4850 	 10.0742 	 8.7509 	 1.5083 	 63.3219 	 1.8540 	 55.7616 	 28.9483 	 7.5604 	 2.5800
  0.4100 	 1.4900 	 10.0773 	 8.7496 	 1.5046 	 63.3029 	 1.8524 	 55.8451 	 28.4458 	 7.4577 	 2.5800
  0.4100 	 1.4950 	 10.0804 	 8.7482 	 1.5010 	 63.2809 	 1.8509 	 55.9283 	 27.9379 	 7.3526 	 2.5800
  0.4100 	 1.5000 	 10.0834 	 8.7469 	 1.4974 	 63.2559 	 1.8494 	 56.0110 	 27.4242 	 7.2449 	 2.5800
  0.4100 	 1.5050 	 10.0865 	 8.7456 	 1.4938 	 63.2278 	 1.8478 	 56.0934 	 26.9043 	 7.1344 	 2.5800
  0.4100 	 1.5100 	 10.0895 	 8.7443 	 1.4902 	 63.1965 	 1.8464 	 56.1753 	 26.3779 	 7.0212 	 2.5800
  0.4100 	 1.5150 	 10.0925 	 8.7430 	 1.4867 	 63.1617 	 1.8449 	 56.2568 	 25.8445 	 6.9050 	 2.5800
  0.4100 	 1.5200 	 10.0955 	 8.7417 	 1.4831 	 63.1235 	 1.8434 	 56.3379 	 25.3036 	 6.7856 	 2.5800
  0.4100 	 1.5250 	 10.0984 	 8.7404 	 1.4796 	 63.0816 	 1.8420 	 56.4186 	 24.7547 	 6.6630 	 2.5800
  0.4100 	 1.5300 	 10.1014 	 8.7391 	 1.4761 	 63.0358 	 1.8405 	 56.4988 	 24.1972 	 6.5370 	 2.5800
  0.4100 	 1.5350 	 10.1043 	 8.7378 	 1.4727 	 62.9860 	 1.8391 	 56.5787 	 23.6305 	 6.4073 	 2.5800
  0.4100 	 1.5400 	 10.1072 	 8.7366 	 1.4692 	 62.9320 	 1.8377 	 56.6582 	 23.0538 	 6.2737 	 2.5800
  0.4100 	 1.5450 	 10.1101 	 8.7353 	 1.4658 	 62.8734 	 1.8363 	 56.7373 	 22.4664 	 6.1361 	 2.5800
  0.4100 	 1.5500 	 10.1130 	 8.7341 	 1.4624 	 62.8100 	 1.8349 	 56.8160 	 21.8673 	 5.9940 	 2.5800
  0.4100 	 1.5550 	 10.1158 	 8.7328 	 1.4590 	 62.7416 	 1.8335 	 56.8943 	 21.2556 	 5.8473 	 2.5800
  0.4100 	 1.5600 	 10.1187 	 8.7316 	 1.4556 	 62.6677 	 1.8321 	 56.9723 	 20.6300 	 5.6954 	 2.5800
  0.4100 	 1.5650 	 10.1215 	 8.7304 	 1.4523 	 62.5879 	 1.8308 	 57.0498 	 19.9892 	 5.5381 	 2.5800
  0.4100 	 1.5700 	 10.1243 	 8.7292 	 1.4489 	 62.5019 	 1.8294 	 57.1270 	 19.3316 	 5.3749 	 2.5800
  0.4100 	 1.5750 	 10.1271 	 8.7280 	 1.4456 	 62.4089 	 1.8281 	 57.2038 	 18.6555 	 5.2052 	 2.5800
  0.4100 	 1.5800 	 10.1298 	 8.7268 	 1.4423 	 62.3085 	 1.8268 	 57.2802 	 17.9587 	 5.0283 	 2.5800
  0.4100 	 1.5850 	 10.1326 	 8.7256 	 1.4390 	 62.1997 	 1.8255 	 57.3562 	 17.2386 	 4.8435 	 2.5800
  0.4100 	 1.5900 	 10.1353 	 8.7244 	 1.4358 	 62.0817 	 1.8242 	 57.4319 	 16.4922 	 4.6498 	 2.5800
  0.4100 	 1.5950 	 10.1380 	 8.7233 	 1.4326 	 61.9533 	 1.8229 	 57.5072 	 15.7156 	 4.4461 	 2.5800
  0.4100 	 1.6000 	 10.1407 	 8.7221 	 1.4293 	 61.8131 	 1.8216 	 57.5821 	 14.9041 	 4.2310 	 2.5800
  0.4100 	 1.6050 	 10.1434 	 8.7210 	 1.4261 	 61.6593 	 1.8204 	 57.6567 	 14.0516 	 4.0026 	 2.5800
  0.4100 	 1.6100 	 10.1460 	 8.7198 	 1.4229 	 61.4894 	 1.8191 	 57.7309 	 13.1500 	 3.7585 	 2.5800
  0.4100 	 1.6150 	 10.1487 	 8.7187 	 1.4198 	 61.3002 	 1.8179 	 57.8047 	 12.1884 	 3.4954 	 2.5800
  0.4100 	 1.6200 	 10.1513 	 8.7175 	 1.4166 	 61.0870 	 1.8167 	 57.8782 	 11.1512 	 3.2087 	 2.5800
  0.4100 	 1.6250 	 10.1539 	 8.7164 	 1.4135 	 60.8428 	 1.8154 	 57.9514 	 10.0150 	 2.8914 	 2.5800
  0.4100 	 1.6300 	 10.1565 	 8.7153 	 1.4104 	 60.5562 	 1.8142 	 58.0242 	 8.7410 	 2.5320 	 2.5800
  0.4100 	 1.6350 	 10.1591 	 8.7142 	 1.4073 	 60.2057 	 1.8130 	 58.0966 	 7.2569 	 2.1091 	 2.5800
  0.4100 	 1.6400 	 10.1617 	 8.7131 	 1.4042 	 59.7409 	 1.8119 	 58.1687 	 5.3920 	 1.5722 	 2.5800
  0.4100 	 1.4100 	 10.0211 	 8.7911 	 1.5704 	 63.2181 	 1.8837 	 54.3974 	 35.9685 	 8.8207 	 2.5900
  0.4100 	 1.4150 	 10.0246 	 8.7896 	 1.5664 	 63.2346 	 1.8819 	 54.4878 	 35.5188 	 8.7469 	 2.5900
  0.4100 	 1.4200 	 10.0280 	 8.7881 	 1.5624 	 63.2491 	 1.8801 	 54.5776 	 35.0667 	 8.6715 	 2.5900
  0.4100 	 1.4250 	 10.0314 	 8.7866 	 1.5584 	 63.2615 	 1.8783 	 54.6670 	 34.6120 	 8.5945 	 2.5900
  0.4100 	 1.4300 	 10.0348 	 8.7851 	 1.5544 	 63.2718 	 1.8766 	 54.7560 	 34.1545 	 8.5158 	 2.5900
  0.4100 	 1.4350 	 10.0382 	 8.7836 	 1.5505 	 63.2800 	 1.8749 	 54.8445 	 33.6943 	 8.4355 	 2.5900
  0.4100 	 1.4400 	 10.0415 	 8.7822 	 1.5466 	 63.2859 	 1.8731 	 54.9325 	 33.2310 	 8.3534 	 2.5900
  0.4100 	 1.4450 	 10.0448 	 8.7807 	 1.5427 	 63.2896 	 1.8714 	 55.0201 	 32.7646 	 8.2695 	 2.5900
  0.4100 	 1.4500 	 10.0481 	 8.7793 	 1.5389 	 63.2909 	 1.8698 	 55.1072 	 32.2948 	 8.1837 	 2.5900
  0.4100 	 1.4550 	 10.0514 	 8.7778 	 1.5350 	 63.2900 	 1.8681 	 55.1939 	 31.8215 	 8.0960 	 2.5900
  0.4100 	 1.4600 	 10.0547 	 8.7764 	 1.5312 	 63.2866 	 1.8665 	 55.2802 	 31.3444 	 8.0064 	 2.5900
  0.4100 	 1.4650 	 10.0579 	 8.7750 	 1.5274 	 63.2808 	 1.8648 	 55.3660 	 30.8635 	 7.9148 	 2.5900
  0.4100 	 1.4700 	 10.0611 	 8.7736 	 1.5237 	 63.2724 	 1.8632 	 55.4514 	 30.3784 	 7.8210 	 2.5900
  0.4100 	 1.4750 	 10.0643 	 8.7722 	 1.5199 	 63.2614 	 1.8616 	 55.5363 	 29.8889 	 7.7251 	 2.5900
  0.4100 	 1.4800 	 10.0674 	 8.7708 	 1.5162 	 63.2478 	 1.8600 	 55.6208 	 29.3948 	 7.6270 	 2.5900
  0.4100 	 1.4850 	 10.0706 	 8.7695 	 1.5125 	 63.2315 	 1.8584 	 55.7049 	 28.8957 	 7.5266 	 2.5900
  0.4100 	 1.4900 	 10.0737 	 8.7681 	 1.5089 	 63.2123 	 1.8569 	 55.7886 	 28.3915 	 7.4237 	 2.5900
  0.4100 	 1.4950 	 10.0768 	 8.7668 	 1.5052 	 63.1901 	 1.8553 	 55.8718 	 27.8817 	 7.3183 	 2.5900
  0.4100 	 1.5000 	 10.0799 	 8.7654 	 1.5016 	 63.1650 	 1.8538 	 55.9546 	 27.3661 	 7.2104 	 2.5900
  0.4100 	 1.5050 	 10.0829 	 8.7641 	 1.4980 	 63.1367 	 1.8523 	 56.0370 	 26.8443 	 7.0997 	 2.5900
  0.4100 	 1.5100 	 10.0860 	 8.7628 	 1.4944 	 63.1051 	 1.8508 	 56.1190 	 26.3157 	 6.9861 	 2.5900
  0.4100 	 1.5150 	 10.0890 	 8.7614 	 1.4908 	 63.0702 	 1.8493 	 56.2006 	 25.7801 	 6.8696 	 2.5900
  0.4100 	 1.5200 	 10.0920 	 8.7601 	 1.4873 	 63.0317 	 1.8478 	 56.2818 	 25.2370 	 6.7499 	 2.5900
  0.4100 	 1.5250 	 10.0950 	 8.7588 	 1.4838 	 62.9895 	 1.8464 	 56.3626 	 24.6857 	 6.6269 	 2.5900
  0.4100 	 1.5300 	 10.0979 	 8.7576 	 1.4803 	 62.9434 	 1.8449 	 56.4429 	 24.1256 	 6.5005 	 2.5900
  0.4100 	 1.5350 	 10.1008 	 8.7563 	 1.4768 	 62.8933 	 1.8435 	 56.5229 	 23.5563 	 6.3704 	 2.5900
  0.4100 	 1.5400 	 10.1038 	 8.7550 	 1.4733 	 62.8388 	 1.8421 	 56.6025 	 22.9768 	 6.2363 	 2.5900
  0.4100 	 1.5450 	 10.1067 	 8.7538 	 1.4699 	 62.7798 	 1.8407 	 56.6817 	 22.3863 	 6.0982 	 2.5900
  0.4100 	 1.5500 	 10.1096 	 8.7525 	 1.4665 	 62.7160 	 1.8393 	 56.7604 	 21.7841 	 5.9555 	 2.5900
  0.4100 	 1.5550 	 10.1124 	 8.7513 	 1.4631 	 62.6470 	 1.8379 	 56.8388 	 21.1689 	 5.8081 	 2.5900
  0.4100 	 1.5600 	 10.1153 	 8.7500 	 1.4597 	 62.5725 	 1.8365 	 56.9169 	 20.5395 	 5.6556 	 2.5900
  0.4100 	 1.5650 	 10.1181 	 8.7488 	 1.4563 	 62.4921 	 1.8351 	 56.9945 	 19.8947 	 5.4976 	 2.5900
  0.4100 	 1.5700 	 10.1209 	 8.7476 	 1.4530 	 62.4052 	 1.8338 	 57.0717 	 19.2328 	 5.3335 	 2.5900
  0.4100 	 1.5750 	 10.1237 	 8.7464 	 1.4497 	 62.3114 	 1.8325 	 57.1486 	 18.5520 	 5.1628 	 2.5900
  0.4100 	 1.5800 	 10.1265 	 8.7452 	 1.4463 	 62.2099 	 1.8311 	 57.2251 	 17.8499 	 4.9848 	 2.5900
  0.4100 	 1.5850 	 10.1292 	 8.7440 	 1.4431 	 62.1000 	 1.8298 	 57.3012 	 17.1240 	 4.7988 	 2.5900
  0.4100 	 1.5900 	 10.1320 	 8.7428 	 1.4398 	 61.9806 	 1.8285 	 57.3770 	 16.3711 	 4.6037 	 2.5900
  0.4100 	 1.5950 	 10.1347 	 8.7416 	 1.4365 	 61.8507 	 1.8272 	 57.4524 	 15.5871 	 4.3983 	 2.5900
  0.4100 	 1.6000 	 10.1374 	 8.7405 	 1.4333 	 61.7086 	 1.8260 	 57.5274 	 14.7672 	 4.1812 	 2.5900
  0.4100 	 1.6050 	 10.1401 	 8.7393 	 1.4301 	 61.5525 	 1.8247 	 57.6020 	 13.9047 	 3.9505 	 2.5900
  0.4100 	 1.6100 	 10.1427 	 8.7382 	 1.4269 	 61.3799 	 1.8234 	 57.6763 	 12.9914 	 3.7035 	 2.5900
  0.4100 	 1.6150 	 10.1454 	 8.7370 	 1.4237 	 61.1871 	 1.8222 	 57.7502 	 12.0154 	 3.4369 	 2.5900
  0.4100 	 1.6200 	 10.1480 	 8.7359 	 1.4206 	 60.9694 	 1.8209 	 57.8238 	 10.9600 	 3.1456 	 2.5900
  0.4100 	 1.6250 	 10.1506 	 8.7347 	 1.4174 	 60.7189 	 1.8197 	 57.8970 	 9.7995 	 2.8219 	 2.5900
  0.4100 	 1.6300 	 10.1533 	 8.7336 	 1.4143 	 60.4231 	 1.8185 	 57.9699 	 8.4909 	 2.4532 	 2.5900
  0.4100 	 1.6350 	 10.1558 	 8.7325 	 1.4112 	 60.0573 	 1.8173 	 58.0424 	 6.9507 	 2.0149 	 2.5900
  0.4100 	 1.4100 	 10.0174 	 8.8098 	 1.5748 	 63.1287 	 1.8883 	 54.3397 	 35.9365 	 8.7890 	 2.6000
  0.4100 	 1.4150 	 10.0208 	 8.8082 	 1.5708 	 63.1453 	 1.8865 	 54.4301 	 35.4857 	 8.7151 	 2.6000
  0.4100 	 1.4200 	 10.0243 	 8.8067 	 1.5667 	 63.1597 	 1.8847 	 54.5201 	 35.0324 	 8.6397 	 2.6000
  0.4100 	 1.4250 	 10.0277 	 8.8052 	 1.5628 	 63.1721 	 1.8829 	 54.6096 	 34.5765 	 8.5626 	 2.6000
  0.4100 	 1.4300 	 10.0311 	 8.8037 	 1.5588 	 63.1824 	 1.8812 	 54.6986 	 34.1179 	 8.4838 	 2.6000
  0.4100 	 1.4350 	 10.0345 	 8.8022 	 1.5548 	 63.1905 	 1.8794 	 54.7872 	 33.6564 	 8.4034 	 2.6000
  0.4100 	 1.4400 	 10.0378 	 8.8008 	 1.5509 	 63.1964 	 1.8777 	 54.8753 	 33.1918 	 8.3211 	 2.6000
  0.4100 	 1.4450 	 10.0412 	 8.7993 	 1.5470 	 63.2001 	 1.8760 	 54.9629 	 32.7241 	 8.2371 	 2.6000
  0.4100 	 1.4500 	 10.0445 	 8.7978 	 1.5432 	 63.2014 	 1.8743 	 55.0502 	 32.2529 	 8.1512 	 2.6000
  0.4100 	 1.4550 	 10.0477 	 8.7964 	 1.5393 	 63.2004 	 1.8726 	 55.1369 	 31.7782 	 8.0634 	 2.6000
  0.4100 	 1.4600 	 10.0510 	 8.7950 	 1.5355 	 63.1969 	 1.8710 	 55.2233 	 31.2997 	 7.9737 	 2.6000
  0.4100 	 1.4650 	 10.0542 	 8.7936 	 1.5317 	 63.1910 	 1.8693 	 55.3092 	 30.8173 	 7.8819 	 2.6000
  0.4100 	 1.4700 	 10.0575 	 8.7921 	 1.5279 	 63.1826 	 1.8677 	 55.3946 	 30.3307 	 7.7880 	 2.6000
  0.4100 	 1.4750 	 10.0607 	 8.7907 	 1.5242 	 63.1715 	 1.8661 	 55.4797 	 29.8396 	 7.6919 	 2.6000
  0.4100 	 1.4800 	 10.0638 	 8.7894 	 1.5205 	 63.1578 	 1.8645 	 55.5642 	 29.3438 	 7.5936 	 2.6000
  0.4100 	 1.4850 	 10.0670 	 8.7880 	 1.5167 	 63.1413 	 1.8629 	 55.6484 	 28.8431 	 7.4929 	 2.6000
  0.4100 	 1.4900 	 10.0701 	 8.7866 	 1.5131 	 63.1220 	 1.8614 	 55.7322 	 28.3371 	 7.3898 	 2.6000
  0.4100 	 1.4950 	 10.0732 	 8.7853 	 1.5094 	 63.0997 	 1.8598 	 55.8155 	 27.8255 	 7.2842 	 2.6000
  0.4100 	 1.5000 	 10.0763 	 8.7839 	 1.5058 	 63.0744 	 1.8583 	 55.8984 	 27.3080 	 7.1760 	 2.6000
  0.4100 	 1.5050 	 10.0794 	 8.7826 	 1.5021 	 63.0459 	 1.8568 	 55.9809 	 26.7841 	 7.0650 	 2.6000
  0.4100 	 1.5100 	 10.0824 	 8.7812 	 1.4986 	 63.0142 	 1.8552 	 56.0630 	 26.2535 	 6.9512 	 2.6000
  0.4100 	 1.5150 	 10.0855 	 8.7799 	 1.4950 	 62.9790 	 1.8537 	 56.1446 	 25.7157 	 6.8344 	 2.6000
  0.4100 	 1.5200 	 10.0885 	 8.7786 	 1.4914 	 62.9402 	 1.8523 	 56.2259 	 25.1702 	 6.7144 	 2.6000
  0.4100 	 1.5250 	 10.0915 	 8.7773 	 1.4879 	 62.8978 	 1.8508 	 56.3067 	 24.6165 	 6.5910 	 2.6000
  0.4100 	 1.5300 	 10.0944 	 8.7760 	 1.4844 	 62.8514 	 1.8493 	 56.3872 	 24.0540 	 6.4642 	 2.6000
  0.4100 	 1.5350 	 10.0974 	 8.7747 	 1.4809 	 62.8009 	 1.8479 	 56.4672 	 23.4819 	 6.3336 	 2.6000
  0.4100 	 1.5400 	 10.1003 	 8.7734 	 1.4774 	 62.7460 	 1.8465 	 56.5469 	 22.8995 	 6.1991 	 2.6000
  0.4100 	 1.5450 	 10.1032 	 8.7722 	 1.4740 	 62.6866 	 1.8451 	 56.6261 	 22.3061 	 6.0604 	 2.6000
  0.4100 	 1.5500 	 10.1061 	 8.7709 	 1.4705 	 62.6222 	 1.8436 	 56.7050 	 21.7006 	 5.9172 	 2.6000
  0.4100 	 1.5550 	 10.1090 	 8.7697 	 1.4671 	 62.5527 	 1.8423 	 56.7835 	 21.0819 	 5.7692 	 2.6000
  0.4100 	 1.5600 	 10.1118 	 8.7684 	 1.4637 	 62.4776 	 1.8409 	 56.8616 	 20.4488 	 5.6160 	 2.6000
  0.4100 	 1.5650 	 10.1147 	 8.7672 	 1.4604 	 62.3964 	 1.8395 	 56.9393 	 19.8000 	 5.4571 	 2.6000
  0.4100 	 1.5700 	 10.1175 	 8.7660 	 1.4570 	 62.3088 	 1.8382 	 57.0166 	 19.1337 	 5.2922 	 2.6000
  0.4100 	 1.5750 	 10.1203 	 8.7648 	 1.4537 	 62.2141 	 1.8368 	 57.0936 	 18.4480 	 5.1205 	 2.6000
  0.4100 	 1.5800 	 10.1231 	 8.7635 	 1.4504 	 62.1116 	 1.8355 	 57.1702 	 17.7406 	 4.9414 	 2.6000
  0.4100 	 1.5850 	 10.1259 	 8.7623 	 1.4471 	 62.0005 	 1.8342 	 57.2464 	 17.0088 	 4.7541 	 2.6000
  0.4100 	 1.5900 	 10.1286 	 8.7612 	 1.4438 	 61.8798 	 1.8328 	 57.3222 	 16.2493 	 4.5576 	 2.6000
  0.4100 	 1.5950 	 10.1313 	 8.7600 	 1.4405 	 61.7482 	 1.8316 	 57.3977 	 15.4578 	 4.3505 	 2.6000
  0.4100 	 1.6000 	 10.1340 	 8.7588 	 1.4373 	 61.6042 	 1.8303 	 57.4728 	 14.6291 	 4.1315 	 2.6000
  0.4100 	 1.6050 	 10.1367 	 8.7576 	 1.4341 	 61.4458 	 1.8290 	 57.5475 	 13.7565 	 3.8983 	 2.6000
  0.4100 	 1.6100 	 10.1394 	 8.7565 	 1.4309 	 61.2703 	 1.8277 	 57.6219 	 12.8310 	 3.6484 	 2.6000
  0.4100 	 1.6150 	 10.1421 	 8.7553 	 1.4277 	 61.0739 	 1.8265 	 57.6959 	 11.8401 	 3.3780 	 2.6000
  0.4100 	 1.6200 	 10.1447 	 8.7542 	 1.4245 	 60.8514 	 1.8252 	 57.7695 	 10.7656 	 3.0818 	 2.6000
  0.4100 	 1.6250 	 10.1474 	 8.7530 	 1.4214 	 60.5943 	 1.8240 	 57.8428 	 9.5795 	 2.7515 	 2.6000
  0.4100 	 1.6300 	 10.1500 	 8.7519 	 1.4182 	 60.2885 	 1.8228 	 57.9158 	 8.2335 	 2.3728 	 2.6000
  0.4100 	 1.6350 	 10.1526 	 8.7508 	 1.4151 	 59.9056 	 1.8216 	 57.9884 	 6.6309 	 1.9173 	 2.6000
