# d(e,e'p)n Central Kinematics Summary
# Beam Energy (Ei) = 8.800 GeV
# 4-Momentum Transfer (Q2) = 1.00 - 1.90 GeV (step: 0.10) 
# x-Bjorken (xbj) = 1.00 - 2.05 (step: 0.05) 
# Missing Momentum (Pr) = 0.10 - 0.55 GeV (step: 0.05) 
# Hadron Out-of-Plane Angle (phi): rotation axis is q-vector 
# thp = thq - thpq, phi = 0  (q-vector scatters at smaller  angles than proton scattering angle)# 
# # 
# Tensor Polarized Deuterium: d(e,e'p) kinematics :
# 
# Header Definitions: 
# Pr   : Central Missing Momentum [GeV/c] 
# xbj  : Bjorken x  
# kf   : e- final momentum [GeV/c] 
# th_e : e- scattering angle [deg] 
# Pf   : final proton momentum [GeV/c] 
# th_p : proton scattering angle [deg] 
# q    : 3-momentum transfer [GeV] 
# th_q : relative angle between q-vector and +z (lab)  [deg] 
# th_nq: relative angle between q-vector and recoil neutron [deg] 
# th_pq: relative angle between q-vector and knocked-out proton [deg] 
# Q2   : 4-Momentum Transfer [GeV^2]  
# 
#! Pr[f,0]/ 	  xbj[f,1]/ 	 kf[f,2]/ 	 th_e[f,3]/ 	 Pf[f,4]/ 	 th_p[f,5]/ 	 q[f,6]/ 	 th_q[f,7]/ 	 th_nq[f,8]/ 	 th_pq[f,9]/ 	 Q2[f,10]/
  0.4000 	 1.6000 	 8.3670 	 7.6188 	 0.8815 	 53.6111 	 1.2196 	 65.4446 	 26.8680 	 11.8335 	 1.3000  (TOO LOW Q2, <1), but can make		Q2>1 cut

  0.4000 	 1.5500 	 8.3187 	 7.9298 	 0.9507 	 51.9273 	 1.2774 	 63.9547 	 29.6889 	 12.0274 	 1.4000

  0.4000 	 1.5500 	 8.2843 	 8.2257 	 0.9985 	 51.8830 	 1.3289 	 63.1147 	 29.0913 	 11.2318 	 1.5000
  
  0.4000 	 1.5500 	 8.2499 	 8.5137 	 1.0452 	 51.8047 	 1.3793 	 62.3086 	 28.4466 	 10.5040 	 1.6000 Q2>1, but events drop faster than before
  
  0.4000 	 1.5500 	 8.2155 	 8.7946 	 1.0909 	 51.6993 	 1.4288 	 61.5333 	 27.7625 	 9.8340 	 1.7000
  
  0.4000 	 1.5500 	 8.1812 	 9.0691 	 1.1359 	 51.5724 	 1.4775 	 60.7862 	 27.0449 	 9.2137 	 1.8000
 
  0.4000 	 1.5500 	 8.1468 	 9.3378 	 1.1801 	 51.4284 	 1.5254 	 60.0649 	 26.2978 	 8.6365 	 1.9000
  0.4000 	 1.6000 	 8.1672 	 9.3261 	 1.1539 	 53.4626 	 1.5167 	 60.7646 	 21.5099 	 7.3020 	 1.9000
  0.4000 	 1.6500 	 8.1864 	 9.3152 	 1.1291 	 55.9050 	 1.5088 	 61.4290 	 15.7672 	 5.5240 	 1.9000
  0.4500 	 1.6000 	 8.3670 	 7.6188 	 0.8512 	 50.8776 	 1.2196 	 65.4446 	 28.4067 	 14.5670 	 1.3000
  0.4500 	 1.6500 	 8.3801 	 7.6128 	 0.8315 	 52.5746 	 1.2150 	 66.0245 	 25.4542 	 13.4499 	 1.3000
  0.4500 	 1.7000 	 8.3925 	 7.6072 	 0.8128 	 54.4275 	 1.2108 	 66.5742 	 22.3364 	 12.1467 	 1.3000
  0.4500 	 1.7500 	 8.4041 	 7.6020 	 0.7949 	 56.5027 	 1.2069 	 67.0960 	 18.9489 	 10.5933 	 1.3000
  0.4500 	 1.6000 	 8.3337 	 7.9227 	 0.9000 	 50.9752 	 1.2718 	 64.5841 	 28.0719 	 13.6089 	 1.4000
  0.4500 	 1.6500 	 8.3478 	 7.9160 	 0.8794 	 52.7099 	 1.2667 	 65.1804 	 24.9618 	 12.4706 	 1.4000
  0.4500 	 1.7000 	 8.3611 	 7.9097 	 0.8599 	 54.6159 	 1.2620 	 65.7460 	 21.6458 	 11.1301 	 1.4000
  0.4500 	 1.7500 	 8.3737 	 7.9037 	 0.8412 	 56.7758 	 1.2577 	 66.2830 	 17.9850 	 9.5072 	 1.4000
  0.4500 	 1.6000 	 8.3004 	 8.2177 	 0.9475 	 51.0227 	 1.3227 	 63.7601 	 27.6598 	 12.7374 	 1.5000
  0.4500 	 1.6500 	 8.3156 	 8.2102 	 0.9260 	 52.7993 	 1.3171 	 64.3717 	 24.3820 	 11.5724 	 1.5000
  0.4500 	 1.7000 	 8.3298 	 8.2032 	 0.9056 	 54.7667 	 1.3119 	 64.9521 	 20.8475 	 10.1854 	 1.5000
  0.4500 	 1.7500 	 8.3432 	 8.1965 	 0.8862 	 57.0301 	 1.3071 	 65.5034 	 16.8683 	 8.4733 	 1.5000
  0.4500 	 1.6000 	 8.2671 	 8.5048 	 0.9938 	 51.0294 	 1.3726 	 62.9688 	 27.1855 	 11.9394 	 1.6000
  0.4500 	 1.6500 	 8.2833 	 8.4965 	 0.9715 	 52.8519 	 1.3664 	 63.5949 	 23.7288 	 10.7430 	 1.6000
  0.4500 	 1.7000 	 8.2985 	 8.4887 	 0.9502 	 54.8892 	 1.3607 	 64.1892 	 19.9527 	 9.3000 	 1.6000
  0.4500 	 1.7500 	 8.3128 	 8.4813 	 0.9300 	 57.2791 	 1.3555 	 64.7541 	 15.5960 	 7.4750 	 1.6000
  0.4500 	 1.6000 	 8.2338 	 8.7848 	 1.0391 	 51.0031 	 1.4215 	 62.2075 	 26.6598 	 11.2044 	 1.7000
  0.4500 	 1.6500 	 8.2510 	 8.7756 	 1.0159 	 52.8751 	 1.4147 	 62.8471 	 23.0123 	 9.9720 	 1.7000
  0.4500 	 1.7000 	 8.2671 	 8.7670 	 0.9938 	 54.9916 	 1.4085 	 63.4546 	 18.9665 	 8.4630 	 1.7000
  0.4500 	 1.5500 	 8.1812 	 9.0691 	 1.1090 	 49.2032 	 1.4775 	 60.7862 	 29.6593 	 11.5830 	 1.8000
  0.4500 	 1.6000 	 8.2005 	 9.0584 	 1.0836 	 50.9496 	 1.4695 	 61.4735 	 26.0910 	 10.5238 	 1.8000
  0.4500 	 1.6500 	 8.2187 	 9.0483 	 1.0594 	 52.8750 	 1.4622 	 62.1258 	 22.2389 	 9.2509 	 1.8000
  0.4500 	 1.7000 	 8.2358 	 9.0389 	 1.0365 	 55.0816 	 1.4555 	 62.7457 	 17.8894 	 7.6642 	 1.8000
  0.4500 	 1.5500 	 8.1468 	 9.3378 	 1.1537 	 49.0899 	 1.5254 	 60.0649 	 29.2153 	 10.9750 	 1.9000
  0.4500 	 1.6000 	 8.1672 	 9.3261 	 1.1273 	 50.8741 	 1.5167 	 60.7646 	 25.4851 	 9.8905 	 1.9000
  0.4500 	 1.6500 	 8.1864 	 9.3152 	 1.1022 	 52.8568 	 1.5088 	 61.4290 	 21.4129 	 8.5722 	 1.9000
  0.4500 	 1.7000 	 8.2044 	 9.3049 	 1.0784 	 55.1670 	 1.5016 	 62.0607 	 16.7164 	 6.8937 	 1.9000
  0.5000 	 1.6000 	 8.3670 	 7.6188 	 0.8172 	 48.3493 	 1.2196 	 65.4446 	 28.7155 	 17.0953 	 1.3000
  0.5000 	 1.6500 	 8.3801 	 7.6128 	 0.7971 	 49.9919 	 1.2150 	 66.0245 	 26.1225 	 16.0326 	 1.3000
  0.5000 	 1.7000 	 8.3925 	 7.6072 	 0.7779 	 51.7644 	 1.2108 	 66.5742 	 23.4329 	 14.8098 	 1.3000
  0.5000 	 1.7500 	 8.4041 	 7.6020 	 0.7595 	 53.7096 	 1.2069 	 67.0960 	 20.5902 	 13.3864 	 1.3000
  0.5000 	 1.8000 	 8.4151 	 7.5970 	 0.7419 	 55.8996 	 1.2034 	 67.5918 	 17.4999 	 11.6922 	 1.3000
  0.5000 	 1.6000 	 8.3337 	 7.9227 	 0.8671 	 48.5101 	 1.2718 	 64.5841 	 28.6955 	 16.0740 	 1.4000
  0.5000 	 1.6500 	 8.3478 	 7.9160 	 0.8461 	 50.1692 	 1.2667 	 65.1804 	 25.9961 	 15.0113 	 1.4000
  0.5000 	 1.7000 	 8.3611 	 7.9097 	 0.8261 	 51.9629 	 1.2620 	 65.7460 	 23.1818 	 13.7831 	 1.4000
  0.5000 	 1.7500 	 8.3737 	 7.9037 	 0.8070 	 53.9393 	 1.2577 	 66.2830 	 20.1849 	 12.3437 	 1.4000
  0.5000 	 1.8000 	 8.3855 	 7.8981 	 0.7888 	 56.1823 	 1.2537 	 66.7935 	 16.8872 	 10.6112 	 1.4000
  0.5000 	 1.6000 	 8.3004 	 8.2177 	 0.9154 	 48.6135 	 1.3227 	 63.7601 	 28.5805 	 15.1465 	 1.5000
  0.5000 	 1.6500 	 8.3156 	 8.2102 	 0.8936 	 50.2940 	 1.3171 	 64.3717 	 25.7683 	 14.0777 	 1.5000
  0.5000 	 1.7000 	 8.3298 	 8.2032 	 0.8728 	 52.1162 	 1.3119 	 64.9521 	 22.8191 	 12.8359 	 1.5000
  0.5000 	 1.7500 	 8.3432 	 8.1965 	 0.8530 	 54.1352 	 1.3071 	 65.5034 	 19.6502 	 11.3682 	 1.5000
  0.5000 	 1.8000 	 8.3559 	 8.1903 	 0.8340 	 56.4521 	 1.3028 	 66.0278 	 16.1098 	 9.5757 	 1.5000
  0.5000 	 1.6000 	 8.2671 	 8.5048 	 0.9625 	 48.6694 	 1.3726 	 62.9688 	 28.3902 	 14.2995 	 1.6000
  0.5000 	 1.6500 	 8.2833 	 8.4965 	 0.9399 	 50.3749 	 1.3664 	 63.5949 	 25.4594 	 13.2200 	 1.6000
  0.5000 	 1.7000 	 8.2985 	 8.4887 	 0.9183 	 52.2315 	 1.3607 	 64.1892 	 22.3649 	 11.9577 	 1.6000
  0.5000 	 1.7500 	 8.3128 	 8.4813 	 0.8976 	 54.3034 	 1.3555 	 64.7541 	 19.0047 	 10.4507 	 1.6000
  0.5000 	 1.8000 	 8.3263 	 8.4744 	 0.8780 	 56.7159 	 1.3507 	 65.2915 	 15.1788 	 8.5756 	 1.6000
  0.5000 	 1.6000 	 8.2338 	 8.7848 	 1.0085 	 48.6857 	 1.4215 	 62.2075 	 28.1393 	 13.5218 	 1.7000
  0.5000 	 1.6500 	 8.2510 	 8.7756 	 0.9850 	 50.4192 	 1.4147 	 62.8471 	 25.0840 	 12.4278 	 1.7000
  0.5000 	 1.7000 	 8.2671 	 8.7670 	 0.9625 	 52.3154 	 1.4085 	 63.4546 	 21.8335 	 11.1392 	 1.7000
  0.5000 	 1.7500 	 8.2823 	 8.7590 	 0.9412 	 54.4500 	 1.4028 	 64.0322 	 18.2602 	 9.5821 	 1.7000
  0.5000 	 1.8000 	 8.2967 	 8.7513 	 0.9207 	 56.9833 	 1.3976 	 64.5819 	 14.0934 	 7.5986 	 1.7000
  0.5000 	 1.6000 	 8.2005 	 9.0584 	 1.0536 	 48.6690 	 1.4695 	 61.4735 	 27.8391 	 12.8045 	 1.8000
  0.5000 	 1.6500 	 8.2187 	 9.0483 	 1.0291 	 50.4330 	 1.4622 	 62.1258 	 24.6534 	 11.6928 	 1.8000
  0.5000 	 1.7000 	 8.2358 	 9.0389 	 1.0058 	 52.3733 	 1.4555 	 62.7457 	 21.2352 	 10.3724 	 1.8000
  0.5000 	 1.7500 	 8.2519 	 9.0301 	 0.9837 	 54.5813 	 1.4493 	 63.3354 	 17.4229 	 8.7541 	 1.8000
  0.5000 	 1.8000 	 8.2671 	 9.0217 	 0.9625 	 57.2678 	 1.4436 	 63.8968 	 12.8400 	 6.6290 	 1.8000
  0.5000 	 1.6000 	 8.1672 	 9.3261 	 1.0978 	 48.6247 	 1.5167 	 60.7646 	 27.4979 	 12.1399 	 1.9000
  0.5000 	 1.6500 	 8.1864 	 9.3152 	 1.0724 	 50.4212 	 1.5088 	 61.4290 	 24.1757 	 11.0078 	 1.9000
  0.5000 	 1.7000 	 8.2044 	 9.3049 	 1.0483 	 52.4103 	 1.5016 	 62.0607 	 20.5770 	 9.6503 	 1.9000
  0.5000 	 1.7500 	 8.2214 	 9.2952 	 1.0254 	 54.7035 	 1.4949 	 62.6617 	 16.4945 	 7.9582 	 1.9000
