# d(e,e'p)n Central Kinematics Summary
# Beam Energy (Ei) = 11.000 GeV
# 4-Momentum Transfer (Q2) = 2.00 - 2.50 GeV (step: 0.10) 
# x-Bjorken (xbj) = 1.00 - 2.05 (step: 0.05) 
# Missing Momentum (Pr) = 0.30 - 0.55 GeV (step: 0.05) 
# Hadron Out-of-Plane Angle (phi): rotation axis is q-vector 
# thp = thq + thpq, phi = 0  (q-vector scatters at smaller  angles than proton scattering angle)# 
# # 
# Tensor Polarized Deuterium: d(e,e'p) kinematics :
# 
# Header Definitions: 
# Pr   : Central Missing Momentum [GeV/c] 
# xbj  : Bjorken x  
# kf   : e- final momentum [GeV/c] 
# th_e : e- scattering angle [deg] 
# Pf   : final proton momentum [GeV/c] 
# th_p : proton scattering angle [deg] 
# q    : 3-momentum transfer [GeV] 
# th_q : relative angle between q-vector and +z (lab)  [deg] 
# th_nq: relative angle between q-vector and recoil neutron [deg] 
# th_pq: relative angle between q-vector and knocked-out proton [deg] 
# Q2   : 4-Momentum Transfer [GeV^2]  
# 
#! Pr[f,0]/ 	  xbj[f,1]/ 	 kf[f,2]/ 	 th_e[f,3]/ 	 Pf[f,4]/ 	 th_p[f,5]/ 	 q[f,6]/ 	 th_q[f,7]/ 	 th_nq[f,8]/ 	 th_pq[f,9]/ 	 Q2[f,10]/
  0.3000 	 1.4500 	 10.2650 	 7.6310 	 1.3259 	 53.4624 	 1.5938 	 58.7877 	 24.2176 	 5.3253 	 2.0000
  0.3000 	 1.4500 	 10.2282 	 7.8338 	 1.3707 	 53.2090 	 1.6418 	 58.1156 	 23.0041 	 4.9066 	 2.1000
  0.3000 	 1.4000 	 10.1626 	 8.0444 	 1.4496 	 50.7714 	 1.7033 	 56.6093 	 29.4372 	 5.8379 	 2.2000
  0.3000 	 1.4500 	 10.1915 	 8.0329 	 1.4150 	 52.9584 	 1.6893 	 57.4649 	 21.7532 	 4.5065 	 2.2000
  0.3000 	 1.4000 	 10.1245 	 8.2409 	 1.4947 	 50.4524 	 1.7511 	 55.9685 	 28.6157 	 5.5162 	 2.3000
  0.3000 	 1.4500 	 10.1547 	 8.2287 	 1.4589 	 52.7127 	 1.7362 	 56.8343 	 20.4584 	 4.1216 	 2.3000
  0.3000 	 1.4000 	 10.0865 	 8.4344 	 1.5395 	 50.1343 	 1.7985 	 55.3471 	 27.7893 	 5.2128 	 2.4000
  0.3000 	 1.4500 	 10.1180 	 8.4212 	 1.5024 	 52.4742 	 1.7827 	 56.2224 	 19.1106 	 3.7482 	 2.4000
  0.3000 	 1.4000 	 10.0484 	 8.6250 	 1.5839 	 49.8179 	 1.8454 	 54.7438 	 26.9576 	 4.9258 	 2.5000
  0.3000 	 1.4500 	 10.0812 	 8.6109 	 1.5456 	 52.2454 	 1.8287 	 55.6280 	 17.6973 	 3.3826 	 2.5000
  0.3000 	 1.4000 	 10.0103 	 8.8129 	 1.6279 	 49.5039 	 1.8919 	 54.1574 	 26.1200 	 4.6535 	 2.6000
  0.3000 	 1.4500 	 10.0445 	 8.7978 	 1.5884 	 52.0296 	 1.8743 	 55.0502 	 16.2006 	 3.0205 	 2.6000
  0.3500 	 1.5000 	 10.2895 	 7.6219 	 1.2756 	 52.8014 	 1.5827 	 59.5769 	 25.4662 	 6.7755 	 2.0000
  0.3500 	 1.5000 	 10.2539 	 7.8240 	 1.3194 	 52.6005 	 1.6299 	 58.9162 	 24.5006 	 6.3157 	 2.1000
  0.3500 	 1.5500 	 10.2780 	 7.8148 	 1.2898 	 54.9668 	 1.6190 	 59.6756 	 17.6088 	 4.7088 	 2.1000
  0.3500 	 1.4500 	 10.1915 	 8.0329 	 1.3954 	 50.3683 	 1.6893 	 57.4649 	 29.5081 	 7.0967 	 2.2000
  0.3500 	 1.5000 	 10.2184 	 8.0223 	 1.3628 	 52.3959 	 1.6766 	 58.2762 	 23.5101 	 5.8803 	 2.2000
  0.3500 	 1.5500 	 10.2436 	 8.0124 	 1.3321 	 54.8871 	 1.6650 	 59.0462 	 16.0231 	 4.1591 	 2.2000
  0.3500 	 1.4500 	 10.1547 	 8.2287 	 1.4395 	 50.1058 	 1.7362 	 56.8343 	 28.8075 	 6.7285 	 2.3000
  0.3500 	 1.5000 	 10.1829 	 8.2173 	 1.4057 	 52.1897 	 1.7227 	 57.6556 	 22.4930 	 5.4660 	 2.3000
  0.3500 	 1.5500 	 10.2093 	 8.2066 	 1.3739 	 54.8290 	 1.7103 	 58.4356 	 14.2959 	 3.6066 	 2.3000
  0.3500 	 1.4500 	 10.1180 	 8.4212 	 1.4831 	 49.8406 	 1.7827 	 56.2224 	 28.1003 	 6.3818 	 2.4000
  0.3500 	 1.5000 	 10.1474 	 8.4090 	 1.4482 	 51.9837 	 1.7683 	 57.0532 	 21.4466 	 5.0695 	 2.4000
  0.3500 	 1.5500 	 10.1749 	 8.3976 	 1.4153 	 54.8060 	 1.7552 	 57.8425 	 12.3693 	 3.0365 	 2.4000
  0.3500 	 1.4500 	 10.0812 	 8.6109 	 1.5264 	 49.5736 	 1.8287 	 55.6280 	 27.3869 	 6.0544 	 2.5000
  0.3500 	 1.5000 	 10.1118 	 8.5978 	 1.4904 	 51.7796 	 1.8135 	 56.4678 	 20.3672 	 4.6882 	 2.5000
  0.3500 	 1.5500 	 10.1405 	 8.5856 	 1.4564 	 54.8433 	 1.7997 	 57.2660 	 10.1312 	 2.4227 	 2.5000
  0.3500 	 1.4500 	 10.0445 	 8.7978 	 1.5694 	 49.3058 	 1.8743 	 55.0502 	 26.6674 	 5.7444 	 2.6000
  0.3500 	 1.5000 	 10.0763 	 8.7839 	 1.5322 	 51.5793 	 1.8583 	 55.8984 	 19.2499 	 4.3191 	 2.6000
  0.4000 	 1.5500 	 10.3124 	 7.6134 	 1.2238 	 52.2286 	 1.5725 	 60.3252 	 25.5240 	 8.0966 	 2.0000
  0.4000 	 1.6000 	 10.3339 	 7.6055 	 1.1966 	 54.3356 	 1.5632 	 61.0354 	 20.4263 	 6.6999 	 2.0000
  0.4000 	 1.5000 	 10.2539 	 7.8240 	 1.2966 	 50.1902 	 1.6299 	 58.9162 	 29.4572 	 8.7260 	 2.1000
  0.4000 	 1.5500 	 10.2780 	 7.8148 	 1.2668 	 52.0864 	 1.6190 	 59.6756 	 24.7253 	 7.5893 	 2.1000
  0.4000 	 1.6000 	 10.3006 	 7.8062 	 1.2386 	 54.2739 	 1.6091 	 60.3968 	 19.2857 	 6.1229 	 2.1000
  0.4000 	 1.5000 	 10.2184 	 8.0223 	 1.3402 	 49.9931 	 1.6766 	 58.2762 	 28.8620 	 8.2832 	 2.2000
  0.4000 	 1.5500 	 10.2436 	 8.0124 	 1.3093 	 51.9357 	 1.6650 	 59.0462 	 23.9027 	 7.1105 	 2.2000
  0.4000 	 1.6000 	 10.2673 	 8.0032 	 1.2801 	 54.2124 	 1.6544 	 59.7777 	 18.0818 	 5.5653 	 2.2000
  0.4000 	 1.5000 	 10.1829 	 8.2173 	 1.3834 	 49.7880 	 1.7227 	 57.6556 	 28.2557 	 7.8676 	 2.3000
  0.4000 	 1.5500 	 10.2093 	 8.2066 	 1.3514 	 51.7789 	 1.7103 	 58.4356 	 23.0562 	 6.6566 	 2.3000
  0.4000 	 1.6000 	 10.2340 	 8.1967 	 1.3212 	 54.1556 	 1.6991 	 59.1769 	 16.8041 	 5.0213 	 2.3000
  0.4000 	 1.5000 	 10.1474 	 8.4090 	 1.4261 	 49.5767 	 1.7683 	 57.0532 	 27.6395 	 7.4765 	 2.4000
  0.4000 	 1.5500 	 10.1749 	 8.3976 	 1.3931 	 51.6180 	 1.7552 	 57.8425 	 22.1855 	 6.2245 	 2.4000
  0.4000 	 1.6000 	 10.2007 	 8.3870 	 1.3619 	 54.1090 	 1.7433 	 58.5931 	 15.4374 	 4.4841 	 2.4000
  0.4000 	 1.5000 	 10.1118 	 8.5978 	 1.4684 	 49.3605 	 1.8135 	 56.4678 	 27.0144 	 7.1073 	 2.5000
  0.4000 	 1.5500 	 10.1405 	 8.5856 	 1.4343 	 51.4546 	 1.7997 	 57.2660 	 21.2892 	 5.8114 	 2.5000
  0.4000 	 1.6000 	 10.1674 	 8.5743 	 1.4021 	 54.0797 	 1.7870 	 58.0254 	 13.9577 	 3.9457 	 2.5000
  0.4000 	 1.5000 	 10.0763 	 8.7839 	 1.5104 	 49.1406 	 1.8583 	 55.8984 	 26.3809 	 6.7578 	 2.6000
  0.4000 	 1.5500 	 10.1061 	 8.7709 	 1.4752 	 51.2905 	 1.8436 	 56.7050 	 20.3655 	 5.4145 	 2.6000
  0.4000 	 1.6000 	 10.1340 	 8.7588 	 1.4420 	 54.0779 	 1.8303 	 57.4728 	 12.3264 	 3.3949 	 2.6000
  0.4500 	 1.5500 	 10.3124 	 7.6134 	 1.1977 	 49.9150 	 1.5725 	 60.3252 	 28.7458 	 10.4102 	 2.0000
  0.4500 	 1.6000 	 10.3339 	 7.6055 	 1.1703 	 51.7371 	 1.5632 	 61.0354 	 24.8467 	 9.2983 	 2.0000
  0.4500 	 1.6500 	 10.3541 	 7.5981 	 1.1443 	 53.7807 	 1.5547 	 61.7102 	 20.5362 	 7.9295 	 2.0000
  0.4500 	 1.5500 	 10.2780 	 7.8148 	 1.2411 	 49.7920 	 1.6190 	 59.6756 	 28.2548 	 9.8837 	 2.1000
  0.4500 	 1.6000 	 10.3006 	 7.8062 	 1.2127 	 51.6545 	 1.6091 	 60.3968 	 24.1788 	 8.7423 	 2.1000
  0.4500 	 1.6500 	 10.3218 	 7.7982 	 1.1858 	 53.7651 	 1.6000 	 61.0823 	 19.6089 	 7.3172 	 2.1000
  0.4500 	 1.5500 	 10.2436 	 8.0124 	 1.2839 	 49.6553 	 1.6650 	 59.0462 	 27.7454 	 9.3909 	 2.2000
  0.4500 	 1.6000 	 10.2673 	 8.0032 	 1.2545 	 51.5597 	 1.6544 	 59.7777 	 23.4839 	 8.2181 	 2.2000
  0.4500 	 1.6500 	 10.2895 	 7.9945 	 1.2267 	 53.7436 	 1.6446 	 60.4734 	 18.6291 	 6.7297 	 2.2000
  0.4500 	 1.5500 	 10.2093 	 8.2066 	 1.3262 	 49.5072 	 1.7103 	 58.4356 	 27.2200 	 8.9284 	 2.3000
  0.4500 	 1.6000 	 10.2340 	 8.1967 	 1.2959 	 51.4551 	 1.6991 	 59.1769 	 22.7632 	 7.7218 	 2.3000
  0.4500 	 1.6500 	 10.2572 	 8.1874 	 1.2671 	 53.7200 	 1.6887 	 59.8821 	 17.5929 	 6.1622 	 2.3000
  0.4500 	 1.5500 	 10.1749 	 8.3976 	 1.3681 	 49.3497 	 1.7552 	 57.8425 	 26.6805 	 8.4929 	 2.4000
  0.4500 	 1.6000 	 10.2007 	 8.3870 	 1.3368 	 51.3430 	 1.7433 	 58.5931 	 22.0175 	 7.2501 	 2.4000
  0.4500 	 1.6500 	 10.2249 	 8.3770 	 1.3071 	 53.6982 	 1.7323 	 59.3075 	 16.4935 	 5.6093 	 2.4000
  0.4500 	 1.5500 	 10.1405 	 8.5856 	 1.4096 	 49.1844 	 1.7997 	 57.2660 	 26.1284 	 8.0816 	 2.5000
  0.4500 	 1.6000 	 10.1674 	 8.5743 	 1.3773 	 51.2253 	 1.7870 	 58.0254 	 21.2468 	 6.8000 	 2.5000
  0.4500 	 1.6500 	 10.1926 	 8.5636 	 1.3466 	 53.6829 	 1.7754 	 58.7485 	 15.3209 	 5.0656 	 2.5000
  0.4500 	 1.5500 	 10.1061 	 8.7709 	 1.4508 	 49.0127 	 1.8436 	 56.7050 	 25.5647 	 7.6923 	 2.6000
  0.4500 	 1.6000 	 10.1340 	 8.7588 	 1.4174 	 51.1038 	 1.8303 	 57.4728 	 20.4505 	 6.3689 	 2.6000
  0.4500 	 1.6500 	 10.1603 	 8.7475 	 1.3858 	 53.6796 	 1.8180 	 58.2041 	 14.0597 	 4.5245 	 2.6000
  0.5000 	 1.6000 	 10.3339 	 7.6055 	 1.1412 	 49.5136 	 1.5632 	 61.0354 	 27.1225 	 11.5218 	 2.0000
  0.5000 	 1.6500 	 10.3541 	 7.5981 	 1.1150 	 51.3436 	 1.5547 	 61.7102 	 23.6573 	 10.3666 	 2.0000
  0.5000 	 1.7000 	 10.3731 	 7.5911 	 1.0900 	 53.3853 	 1.5469 	 62.3520 	 19.8634 	 8.9667 	 2.0000
  0.5000 	 1.6000 	 10.3006 	 7.8062 	 1.1840 	 49.4521 	 1.6091 	 60.3968 	 26.7181 	 10.9448 	 2.1000
  0.5000 	 1.6500 	 10.3218 	 7.7982 	 1.1569 	 51.3183 	 1.6000 	 61.0823 	 23.1027 	 9.7640 	 2.1000
  0.5000 	 1.7000 	 10.3417 	 7.7907 	 1.1311 	 53.4186 	 1.5916 	 61.7345 	 19.0971 	 8.3159 	 2.1000
  0.5000 	 1.5500 	 10.2436 	 8.0124 	 1.2559 	 47.6368 	 1.6650 	 59.0462 	 29.7927 	 11.4094 	 2.2000
  0.5000 	 1.6000 	 10.2673 	 8.0032 	 1.2262 	 49.3735 	 1.6544 	 59.7777 	 26.2887 	 10.4042 	 2.2000
  0.5000 	 1.6500 	 10.2895 	 7.9945 	 1.1982 	 51.2779 	 1.6446 	 60.4734 	 22.5156 	 9.1954 	 2.2000
  0.5000 	 1.7000 	 10.3104 	 7.9864 	 1.1715 	 53.4426 	 1.6357 	 61.1355 	 18.2787 	 7.6929 	 2.2000
  0.5000 	 1.5500 	 10.2093 	 8.2066 	 1.2985 	 47.5174 	 1.7103 	 58.4356 	 29.4656 	 10.9182 	 2.3000
  0.5000 	 1.6000 	 10.2340 	 8.1967 	 1.2679 	 49.2805 	 1.6991 	 59.1769 	 25.8377 	 9.8964 	 2.3000
  0.5000 	 1.6500 	 10.2572 	 8.1874 	 1.2389 	 51.2251 	 1.6887 	 59.8821 	 21.8985 	 8.6571 	 2.3000
  0.5000 	 1.7000 	 10.2790 	 8.1787 	 1.2114 	 53.4609 	 1.6792 	 60.5537 	 17.4070 	 7.0928 	 2.3000
  0.5000 	 1.5500 	 10.1749 	 8.3976 	 1.3407 	 47.3852 	 1.7552 	 57.8425 	 29.1229 	 10.4573 	 2.4000
  0.5000 	 1.6000 	 10.2007 	 8.3870 	 1.3091 	 49.1754 	 1.7433 	 58.5931 	 25.3676 	 9.4177 	 2.4000
  0.5000 	 1.6500 	 10.2249 	 8.3770 	 1.2792 	 51.1622 	 1.7323 	 59.3075 	 21.2529 	 8.1453 	 2.4000
  0.5000 	 1.7000 	 10.2477 	 8.3677 	 1.2508 	 53.4772 	 1.7222 	 59.9881 	 16.4790 	 6.5109 	 2.4000
  0.5000 	 1.5500 	 10.1405 	 8.5856 	 1.3825 	 47.2423 	 1.7997 	 57.2660 	 28.7671 	 10.0237 	 2.5000
  0.5000 	 1.6000 	 10.1674 	 8.5743 	 1.3499 	 49.0600 	 1.7870 	 58.0254 	 24.8805 	 8.9654 	 2.5000
  0.5000 	 1.6500 	 10.1926 	 8.5636 	 1.3190 	 51.0913 	 1.7754 	 58.7485 	 20.5798 	 7.6572 	 2.5000
  0.5000 	 1.7000 	 10.2163 	 8.5537 	 1.2898 	 53.4952 	 1.7647 	 59.4376 	 15.4891 	 5.9423 	 2.5000
  0.5000 	 1.5500 	 10.1061 	 8.7709 	 1.4238 	 47.0902 	 1.8436 	 56.7050 	 28.4001 	 9.6148 	 2.6000
  0.5000 	 1.6000 	 10.1340 	 8.7588 	 1.3902 	 48.9359 	 1.8303 	 57.4728 	 24.3779 	 8.5369 	 2.6000
  0.5000 	 1.6500 	 10.1603 	 8.7475 	 1.3585 	 51.0143 	 1.8180 	 58.2041 	 19.8795 	 7.1898 	 2.6000
  0.5000 	 1.7000 	 10.1850 	 8.7368 	 1.3283 	 53.5196 	 1.8067 	 58.9013 	 14.4286 	 5.3817 	 2.6000
  0.5500 	 1.6000 	 10.3339 	 7.6055 	 1.1095 	 47.4823 	 1.5632 	 61.0354 	 28.2116 	 13.5532 	 2.0000
  0.5500 	 1.6500 	 10.3541 	 7.5981 	 1.0829 	 49.2067 	 1.5547 	 61.7102 	 25.2309 	 12.5035 	 2.0000
  0.5500 	 1.7000 	 10.3731 	 7.5911 	 1.0576 	 51.0843 	 1.5469 	 62.3520 	 22.0698 	 11.2677 	 2.0000
  0.5500 	 1.7500 	 10.3910 	 7.5846 	 1.0336 	 53.1833 	 1.5398 	 62.9629 	 18.6145 	 9.7796 	 2.0000
  0.5500 	 1.6000 	 10.3006 	 7.8062 	 1.1527 	 47.4545 	 1.6091 	 60.3968 	 27.9965 	 12.9423 	 2.1000
  0.5500 	 1.6500 	 10.3218 	 7.7982 	 1.1253 	 49.2009 	 1.6000 	 61.0823 	 24.9128 	 11.8814 	 2.1000
  0.5500 	 1.7000 	 10.3417 	 7.7907 	 1.0992 	 51.1101 	 1.5916 	 61.7345 	 21.6211 	 10.6244 	 2.1000
  0.5500 	 1.7500 	 10.3605 	 7.7836 	 1.0743 	 53.2610 	 1.5840 	 62.3557 	 17.9844 	 9.0947 	 2.1000
  0.5500 	 1.6000 	 10.2673 	 8.0032 	 1.1954 	 47.4063 	 1.6544 	 59.7777 	 27.7525 	 12.3715 	 2.2000
  0.5500 	 1.6500 	 10.2895 	 7.9945 	 1.1670 	 49.1758 	 1.6446 	 60.4734 	 24.5622 	 11.2975 	 2.2000
  0.5500 	 1.7000 	 10.3104 	 7.9864 	 1.1401 	 51.1194 	 1.6357 	 61.1355 	 21.1325 	 10.0161 	 2.2000
  0.5500 	 1.7500 	 10.3301 	 7.9788 	 1.1144 	 53.3285 	 1.6275 	 61.7664 	 17.2972 	 8.4379 	 2.2000
  0.5500 	 1.6000 	 10.2340 	 8.1967 	 1.2374 	 47.3404 	 1.6991 	 59.1769 	 27.4838 	 11.8365 	 2.3000
  0.5500 	 1.6500 	 10.2572 	 8.1874 	 1.2082 	 49.1343 	 1.6887 	 59.8821 	 24.1833 	 10.7478 	 2.3000
  0.5500 	 1.7000 	 10.2790 	 8.1787 	 1.1804 	 51.1148 	 1.6792 	 60.5537 	 20.6076 	 9.4389 	 2.3000
  0.5500 	 1.7500 	 10.2996 	 8.1705 	 1.1540 	 53.3893 	 1.6705 	 61.1938 	 16.5536 	 7.8045 	 2.3000
  0.5500 	 1.6000 	 10.2007 	 8.3870 	 1.2790 	 47.2594 	 1.7433 	 58.5931 	 27.1940 	 11.3337 	 2.4000
  0.5500 	 1.6500 	 10.2249 	 8.3770 	 1.2488 	 49.0786 	 1.7323 	 59.3075 	 23.7794 	 10.2290 	 2.4000
  0.5500 	 1.7000 	 10.2477 	 8.3677 	 1.2202 	 51.0987 	 1.7222 	 59.9881 	 20.0490 	 8.8894 	 2.4000
  0.5500 	 1.7500 	 10.2692 	 8.3589 	 1.1930 	 53.4468 	 1.7129 	 60.6370 	 15.7525 	 7.1902 	 2.4000
  0.5500 	 1.6000 	 10.1674 	 8.5743 	 1.3201 	 47.1652 	 1.7870 	 58.0254 	 26.8860 	 10.8602 	 2.5000
  0.5500 	 1.6500 	 10.1926 	 8.5636 	 1.2890 	 49.0106 	 1.7754 	 58.7485 	 23.3534 	 9.7378 	 2.5000
  0.5500 	 1.7000 	 10.2163 	 8.5537 	 1.2595 	 51.0732 	 1.7647 	 59.4376 	 19.4584 	 8.3644 	 2.5000
  0.5500 	 1.7500 	 10.2387 	 8.5443 	 1.2315 	 53.5046 	 1.7549 	 60.0949 	 14.8903 	 6.5902 	 2.5000
  0.5500 	 1.5500 	 10.1061 	 8.7709 	 1.3945 	 45.3419 	 1.8436 	 56.7050 	 29.9709 	 11.3631 	 2.6000
  0.5500 	 1.6000 	 10.1340 	 8.7588 	 1.3607 	 47.0597 	 1.8303 	 57.4728 	 26.5623 	 10.4131 	 2.6000
  0.5500 	 1.6500 	 10.1603 	 8.7475 	 1.3287 	 48.9323 	 1.8180 	 58.2041 	 22.9073 	 9.2718 	 2.6000
  0.5500 	 1.7000 	 10.1850 	 8.7368 	 1.2984 	 51.0403 	 1.8067 	 58.9013 	 18.8368 	 7.8610 	 2.6000
  0.5500 	 1.7500 	 10.2083 	 8.7268 	 1.2695 	 53.5670 	 1.7963 	 59.5666 	 13.9610 	 5.9996 	 2.6000
