# d(e,e'p)n Central Kinematics Summary
# Beam Energy (Ei) = 10.549 GeV
# 4-Momentum Transfer (Q2) = 3.40 - 3.59 GeV (step: 0.01) 
# x-Bjorken (xbj) = 1.00 - 2.01 (step: 0.01) 
# Missing Momentum (Pr) = 0.34 - 0.37 GeV (step: 0.01) 
# Hadron Out-of-Plane Angle (phi): rotation axis is q-vector 
# thp = thq + thpq, phi = 180  (q-vector scatters at smaller  angles than proton scattering angle)# 
# # 
# Tensor Polarized Deuterium: d(e,e'p) kinematics :
# 
# Header Definitions: 
# Pr   : Central Missing Momentum [GeV/c] 
# xbj  : Bjorken x  
# kf   : e- final momentum [GeV/c] 
# th_e : e- scattering angle [deg] 
# Pf   : final proton momentum [GeV/c] 
# th_p : proton scattering angle [deg] 
# q    : 3-momentum transfer [GeV] 
# th_q : relative angle between q-vector and +z (lab)  [deg] 
# th_nq: relative angle between q-vector and recoil neutron [deg] 
# th_pq: relative angle between q-vector and knocked-out proton [deg] 
# Q2   : 4-Momentum Transfer [GeV^2]  
# 
#! Pr[f,0]/ 	  xbj[f,1]/ 	 kf[f,2]/ 	 th_e[f,3]/ 	 Pf[f,4]/ 	 th_p[f,5]/ 	 q[f,6]/ 	 th_q[f,7]/ 	 th_nq[f,8]/ 	 th_pq[f,9]/ 	 Q2[f,10]/
  0.3400 	 1.3100 	 9.1659 	 10.7599 	 2.0555 	 54.0191 	 2.3050 	 47.9362 	 39.8391 	 6.0829 	 3.4000
  0.3400 	 1.3200 	 9.1764 	 10.7537 	 2.0440 	 54.1013 	 2.2987 	 48.1466 	 38.5844 	 5.9547 	 3.4000
  0.3400 	 1.3300 	 9.1867 	 10.7476 	 2.0326 	 54.1737 	 2.2926 	 48.3549 	 37.3078 	 5.8189 	 3.4000
  0.3400 	 1.3400 	 9.1969 	 10.7417 	 2.0214 	 54.2359 	 2.2865 	 48.5612 	 36.0067 	 5.6748 	 3.4000
  0.3400 	 1.3500 	 9.2069 	 10.7358 	 2.0103 	 54.2873 	 2.2806 	 48.7654 	 34.6778 	 5.5219 	 3.4000
  0.3400 	 1.3600 	 9.2168 	 10.7301 	 1.9995 	 54.3271 	 2.2748 	 48.9678 	 33.3174 	 5.3594 	 3.4000
  0.3400 	 1.3700 	 9.2265 	 10.7244 	 1.9887 	 54.3546 	 2.2691 	 49.1681 	 31.9208 	 5.1865 	 3.4000
  0.3400 	 1.3800 	 9.2361 	 10.7188 	 1.9781 	 54.3686 	 2.2636 	 49.3665 	 30.4827 	 5.0021 	 3.4000
  0.3400 	 1.3100 	 9.1618 	 10.7781 	 2.0600 	 53.9539 	 2.3096 	 47.8876 	 39.8128 	 6.0663 	 3.4100
  0.3400 	 1.3200 	 9.1724 	 10.7719 	 2.0484 	 54.0361 	 2.3033 	 48.0981 	 38.5558 	 5.9381 	 3.4100
  0.3400 	 1.3300 	 9.1827 	 10.7658 	 2.0370 	 54.1086 	 2.2971 	 48.3065 	 37.2769 	 5.8021 	 3.4100
  0.3400 	 1.3400 	 9.1929 	 10.7598 	 2.0258 	 54.1707 	 2.2911 	 48.5128 	 35.9733 	 5.6579 	 3.4100
  0.3400 	 1.3500 	 9.2029 	 10.7540 	 2.0147 	 54.2221 	 2.2851 	 48.7172 	 34.6417 	 5.5049 	 3.4100
  0.3400 	 1.3600 	 9.2128 	 10.7482 	 2.0038 	 54.2618 	 2.2793 	 48.9196 	 33.2783 	 5.3422 	 3.4100
  0.3400 	 1.3700 	 9.2226 	 10.7425 	 1.9930 	 54.2892 	 2.2736 	 49.1201 	 31.8786 	 5.1691 	 3.4100
  0.3400 	 1.3800 	 9.2322 	 10.7369 	 1.9824 	 54.3031 	 2.2680 	 49.3186 	 30.4369 	 4.9845 	 3.4100
  0.3400 	 1.3100 	 9.1578 	 10.7964 	 2.0644 	 53.8889 	 2.3142 	 47.8391 	 39.7864 	 6.0498 	 3.4200
  0.3400 	 1.3200 	 9.1683 	 10.7901 	 2.0528 	 53.9711 	 2.3079 	 48.0497 	 38.5273 	 5.9215 	 3.4200
  0.3400 	 1.3300 	 9.1787 	 10.7840 	 2.0414 	 54.0436 	 2.3017 	 48.2582 	 37.2461 	 5.7854 	 3.4200
  0.3400 	 1.3400 	 9.1889 	 10.7780 	 2.0302 	 54.1057 	 2.2956 	 48.4646 	 35.9400 	 5.6411 	 3.4200
  0.3400 	 1.3500 	 9.1990 	 10.7721 	 2.0191 	 54.1570 	 2.2897 	 48.6691 	 34.6057 	 5.4879 	 3.4200
  0.3400 	 1.3600 	 9.2089 	 10.7663 	 2.0081 	 54.1967 	 2.2838 	 48.8716 	 33.2394 	 5.3251 	 3.4200
  0.3400 	 1.3700 	 9.2187 	 10.7605 	 1.9973 	 54.2240 	 2.2781 	 49.0722 	 31.8363 	 5.1518 	 3.4200
  0.3400 	 1.3800 	 9.2283 	 10.7549 	 1.9866 	 54.2377 	 2.2725 	 49.2708 	 30.3911 	 4.9669 	 3.4200
  0.3400 	 1.3100 	 9.1537 	 10.8146 	 2.0689 	 53.8241 	 2.3188 	 47.7907 	 39.7601 	 6.0333 	 3.4300
  0.3400 	 1.3200 	 9.1643 	 10.8083 	 2.0573 	 53.9063 	 2.3125 	 48.0014 	 38.4988 	 5.9049 	 3.4300
  0.3400 	 1.3300 	 9.1747 	 10.8022 	 2.0458 	 53.9788 	 2.3062 	 48.2100 	 37.2153 	 5.7688 	 3.4300
  0.3400 	 1.3400 	 9.1849 	 10.7961 	 2.0345 	 54.0409 	 2.3001 	 48.4165 	 35.9067 	 5.6244 	 3.4300
  0.3400 	 1.3500 	 9.1951 	 10.7902 	 2.0234 	 54.0922 	 2.2942 	 48.6211 	 34.5697 	 5.4711 	 3.4300
  0.3400 	 1.3600 	 9.2050 	 10.7843 	 2.0124 	 54.1318 	 2.2883 	 48.8237 	 33.2004 	 5.3081 	 3.4300
  0.3400 	 1.3700 	 9.2148 	 10.7786 	 2.0016 	 54.1590 	 2.2826 	 49.0244 	 31.7942 	 5.1346 	 3.4300
  0.3400 	 1.3800 	 9.2245 	 10.7729 	 1.9909 	 54.1726 	 2.2769 	 49.2231 	 30.3453 	 4.9495 	 3.4300
  0.3400 	 1.3100 	 9.1496 	 10.8328 	 2.0734 	 53.7594 	 2.3234 	 47.7425 	 39.7338 	 6.0170 	 3.4400
  0.3400 	 1.3200 	 9.1602 	 10.8265 	 2.0617 	 53.8417 	 2.3170 	 47.9532 	 38.4703 	 5.8885 	 3.4400
  0.3400 	 1.3300 	 9.1707 	 10.8203 	 2.0502 	 53.9141 	 2.3108 	 48.1619 	 37.1845 	 5.7523 	 3.4400
  0.3400 	 1.3400 	 9.1810 	 10.8143 	 2.0389 	 53.9763 	 2.3047 	 48.3685 	 35.8734 	 5.6078 	 3.4400
  0.3400 	 1.3500 	 9.1911 	 10.8083 	 2.0278 	 54.0275 	 2.2987 	 48.5732 	 34.5337 	 5.4543 	 3.4400
  0.3400 	 1.3600 	 9.2011 	 10.8024 	 2.0168 	 54.0671 	 2.2928 	 48.7759 	 33.1615 	 5.2912 	 3.4400
  0.3400 	 1.3700 	 9.2109 	 10.7966 	 2.0059 	 54.0941 	 2.2870 	 48.9767 	 31.7520 	 5.1175 	 3.4400
  0.3400 	 1.3800 	 9.2206 	 10.7909 	 1.9952 	 54.1076 	 2.2814 	 49.1755 	 30.2996 	 4.9321 	 3.4400
  0.3400 	 1.3100 	 9.1456 	 10.8510 	 2.0778 	 53.6950 	 2.3280 	 47.6943 	 39.7076 	 6.0007 	 3.4500
  0.3400 	 1.3200 	 9.1562 	 10.8447 	 2.0662 	 53.7772 	 2.3216 	 47.9051 	 38.4419 	 5.8721 	 3.4500
  0.3400 	 1.3300 	 9.1667 	 10.8385 	 2.0546 	 53.8497 	 2.3153 	 48.1139 	 37.1537 	 5.7358 	 3.4500
  0.3400 	 1.3400 	 9.1770 	 10.8324 	 2.0433 	 53.9119 	 2.3092 	 48.3207 	 35.8402 	 5.5912 	 3.4500
  0.3400 	 1.3500 	 9.1872 	 10.8264 	 2.0321 	 53.9631 	 2.3032 	 48.5254 	 34.4978 	 5.4376 	 3.4500
  0.3400 	 1.3600 	 9.1972 	 10.8204 	 2.0211 	 54.0026 	 2.2973 	 48.7282 	 33.1226 	 5.2744 	 3.4500
  0.3400 	 1.3700 	 9.2070 	 10.8146 	 2.0102 	 54.0295 	 2.2915 	 48.9291 	 31.7099 	 5.1005 	 3.4500
  0.3400 	 1.3800 	 9.2168 	 10.8089 	 1.9995 	 54.0428 	 2.2858 	 49.1280 	 30.2539 	 4.9148 	 3.4500
  0.3400 	 1.3100 	 9.1415 	 10.8692 	 2.0823 	 53.6307 	 2.3326 	 47.6462 	 39.6813 	 5.9844 	 3.4600
  0.3400 	 1.3200 	 9.1522 	 10.8628 	 2.0706 	 53.7130 	 2.3262 	 47.8572 	 38.4135 	 5.8558 	 3.4600
  0.3400 	 1.3300 	 9.1627 	 10.8566 	 2.0590 	 53.7855 	 2.3199 	 48.0660 	 37.1230 	 5.7195 	 3.4600
  0.3400 	 1.3400 	 9.1730 	 10.8505 	 2.0477 	 53.8476 	 2.3137 	 48.2729 	 35.8069 	 5.5747 	 3.4600
  0.3400 	 1.3500 	 9.1832 	 10.8444 	 2.0365 	 53.8988 	 2.3077 	 48.4777 	 34.4619 	 5.4210 	 3.4600
  0.3400 	 1.3600 	 9.1933 	 10.8385 	 2.0254 	 53.9382 	 2.3017 	 48.6806 	 33.0837 	 5.2576 	 3.4600
  0.3400 	 1.3700 	 9.2031 	 10.8326 	 2.0145 	 53.9651 	 2.2959 	 48.8816 	 31.6678 	 5.0835 	 3.4600
  0.3400 	 1.3800 	 9.2129 	 10.8269 	 2.0037 	 53.9782 	 2.2902 	 49.0806 	 30.2083 	 4.8976 	 3.4600
  0.3400 	 1.3100 	 9.1374 	 10.8874 	 2.0867 	 53.5666 	 2.3372 	 47.5983 	 39.6551 	 5.9683 	 3.4700
  0.3400 	 1.3200 	 9.1481 	 10.8810 	 2.0750 	 53.6489 	 2.3308 	 47.8093 	 38.3852 	 5.8396 	 3.4700
  0.3400 	 1.3300 	 9.1587 	 10.8747 	 2.0634 	 53.7214 	 2.3244 	 48.0183 	 37.0924 	 5.7032 	 3.4700
  0.3400 	 1.3400 	 9.1690 	 10.8685 	 2.0520 	 53.7835 	 2.3183 	 48.2252 	 35.7738 	 5.5583 	 3.4700
  0.3400 	 1.3500 	 9.1793 	 10.8625 	 2.0408 	 53.8347 	 2.3122 	 48.4302 	 34.4260 	 5.4045 	 3.4700
  0.3400 	 1.3600 	 9.1893 	 10.8565 	 2.0297 	 53.8740 	 2.3062 	 48.6331 	 33.0449 	 5.2409 	 3.4700
  0.3400 	 1.3700 	 9.1993 	 10.8506 	 2.0188 	 53.9008 	 2.3004 	 48.8342 	 31.6258 	 5.0666 	 3.4700
  0.3400 	 1.3800 	 9.2090 	 10.8448 	 2.0080 	 53.9138 	 2.2947 	 49.0333 	 30.1626 	 4.8805 	 3.4700
  0.3400 	 1.3100 	 9.1334 	 10.9055 	 2.0912 	 53.5027 	 2.3418 	 47.5505 	 39.6290 	 5.9522 	 3.4800
  0.3400 	 1.3200 	 9.1441 	 10.8991 	 2.0794 	 53.5850 	 2.3353 	 47.7615 	 38.3568 	 5.8235 	 3.4800
  0.3400 	 1.3300 	 9.1547 	 10.8928 	 2.0679 	 53.6575 	 2.3290 	 47.9706 	 37.0617 	 5.6869 	 3.4800
  0.3400 	 1.3400 	 9.1651 	 10.8866 	 2.0564 	 53.7196 	 2.3228 	 48.1776 	 35.7406 	 5.5420 	 3.4800
  0.3400 	 1.3500 	 9.1753 	 10.8805 	 2.0451 	 53.7707 	 2.3167 	 48.3827 	 34.3901 	 5.3880 	 3.4800
  0.3400 	 1.3600 	 9.1854 	 10.8745 	 2.0340 	 53.8100 	 2.3107 	 48.5858 	 33.0061 	 5.2243 	 3.4800
  0.3400 	 1.3700 	 9.1954 	 10.8686 	 2.0231 	 53.8367 	 2.3048 	 48.7869 	 31.5837 	 5.0498 	 3.4800
  0.3400 	 1.3800 	 9.2052 	 10.8628 	 2.0122 	 53.8496 	 2.2991 	 48.9861 	 30.1170 	 4.8635 	 3.4800
  0.3400 	 1.3100 	 9.1293 	 10.9237 	 2.0957 	 53.4390 	 2.3464 	 47.5027 	 39.6029 	 5.9362 	 3.4900
  0.3400 	 1.3200 	 9.1401 	 10.9172 	 2.0839 	 53.5213 	 2.3399 	 47.7139 	 38.3285 	 5.8074 	 3.4900
  0.3400 	 1.3300 	 9.1507 	 10.9109 	 2.0722 	 53.5939 	 2.3335 	 47.9231 	 37.0311 	 5.6708 	 3.4900
  0.3400 	 1.3400 	 9.1611 	 10.9047 	 2.0608 	 53.6559 	 2.3273 	 48.1302 	 35.7075 	 5.5258 	 3.4900
  0.3400 	 1.3500 	 9.1714 	 10.8985 	 2.0495 	 53.7070 	 2.3212 	 48.3353 	 34.3543 	 5.3717 	 3.4900
  0.3400 	 1.3600 	 9.1815 	 10.8925 	 2.0383 	 53.7462 	 2.3152 	 48.5385 	 32.9674 	 5.2078 	 3.4900
  0.3400 	 1.3700 	 9.1915 	 10.8866 	 2.0273 	 53.7728 	 2.3093 	 48.7397 	 31.5417 	 5.0331 	 3.4900
  0.3400 	 1.3800 	 9.2013 	 10.8807 	 2.0165 	 53.7855 	 2.3035 	 48.9390 	 30.0714 	 4.8465 	 3.4900
  0.3400 	 1.3100 	 9.1252 	 10.9418 	 2.1001 	 53.3754 	 2.3510 	 47.4551 	 39.5768 	 5.9203 	 3.5000
  0.3400 	 1.3200 	 9.1360 	 10.9353 	 2.0883 	 53.4578 	 2.3445 	 47.6664 	 38.3003 	 5.7915 	 3.5000
  0.3400 	 1.3300 	 9.1466 	 10.9290 	 2.0766 	 53.5303 	 2.3381 	 47.8756 	 37.0005 	 5.6547 	 3.5000
  0.3400 	 1.3400 	 9.1571 	 10.9227 	 2.0652 	 53.5924 	 2.3318 	 48.0828 	 35.6744 	 5.5096 	 3.5000
  0.3400 	 1.3500 	 9.1674 	 10.9165 	 2.0538 	 53.6434 	 2.3257 	 48.2881 	 34.3185 	 5.3554 	 3.5000
  0.3400 	 1.3600 	 9.1776 	 10.9105 	 2.0427 	 53.6826 	 2.3197 	 48.4913 	 32.9286 	 5.1913 	 3.5000
  0.3400 	 1.3700 	 9.1876 	 10.9045 	 2.0316 	 53.7090 	 2.3137 	 48.6926 	 31.4998 	 5.0164 	 3.5000
  0.3400 	 1.3800 	 9.1975 	 10.8986 	 2.0208 	 53.7216 	 2.3080 	 48.8920 	 30.0258 	 4.8296 	 3.5000
  0.3400 	 1.3100 	 9.1212 	 10.9599 	 2.1046 	 53.3121 	 2.3556 	 47.4076 	 39.5507 	 5.9045 	 3.5100
  0.3400 	 1.3200 	 9.1320 	 10.9534 	 2.0927 	 53.3945 	 2.3490 	 47.6189 	 38.2720 	 5.7756 	 3.5100
  0.3400 	 1.3300 	 9.1426 	 10.9470 	 2.0810 	 53.4670 	 2.3426 	 47.8283 	 36.9700 	 5.6387 	 3.5100
  0.3400 	 1.3400 	 9.1531 	 10.9407 	 2.0695 	 53.5291 	 2.3363 	 48.0356 	 35.6414 	 5.4935 	 3.5100
  0.3400 	 1.3500 	 9.1635 	 10.9345 	 2.0582 	 53.5801 	 2.3302 	 48.2409 	 34.2828 	 5.3392 	 3.5100
  0.3400 	 1.3600 	 9.1737 	 10.9284 	 2.0470 	 53.6192 	 2.3241 	 48.4442 	 32.8900 	 5.1749 	 3.5100
  0.3400 	 1.3700 	 9.1837 	 10.9224 	 2.0359 	 53.6455 	 2.3182 	 48.6457 	 31.4578 	 4.9998 	 3.5100
  0.3400 	 1.3100 	 9.1171 	 10.9780 	 2.1090 	 53.2489 	 2.3602 	 47.3602 	 39.5246 	 5.8887 	 3.5200
  0.3400 	 1.3200 	 9.1279 	 10.9715 	 2.0971 	 53.3313 	 2.3536 	 47.5716 	 38.2438 	 5.7597 	 3.5200
  0.3400 	 1.3300 	 9.1386 	 10.9651 	 2.0854 	 53.4039 	 2.3472 	 47.7810 	 36.9395 	 5.6228 	 3.5200
  0.3400 	 1.3400 	 9.1492 	 10.9587 	 2.0739 	 53.4659 	 2.3408 	 47.9884 	 35.6084 	 5.4775 	 3.5200
  0.3400 	 1.3500 	 9.1595 	 10.9525 	 2.0625 	 53.5168 	 2.3347 	 48.1938 	 34.2471 	 5.3230 	 3.5200
  0.3400 	 1.3600 	 9.1697 	 10.9464 	 2.0513 	 53.5559 	 2.3286 	 48.3973 	 32.8513 	 5.1586 	 3.5200
  0.3400 	 1.3700 	 9.1798 	 10.9404 	 2.0402 	 53.5821 	 2.3226 	 48.5988 	 31.4159 	 4.9833 	 3.5200
  0.3400 	 1.3100 	 9.1130 	 10.9961 	 2.1135 	 53.1859 	 2.3647 	 47.3129 	 39.4986 	 5.8730 	 3.5300
  0.3400 	 1.3200 	 9.1239 	 10.9895 	 2.1016 	 53.2684 	 2.3582 	 47.5244 	 38.2157 	 5.7440 	 3.5300
  0.3400 	 1.3300 	 9.1346 	 10.9831 	 2.0898 	 53.3409 	 2.3517 	 47.7339 	 36.9090 	 5.6070 	 3.5300
  0.3400 	 1.3400 	 9.1452 	 10.9767 	 2.0783 	 53.4029 	 2.3454 	 47.9414 	 35.5754 	 5.4615 	 3.5300
  0.3400 	 1.3500 	 9.1556 	 10.9705 	 2.0668 	 53.4538 	 2.3391 	 48.1469 	 34.2114 	 5.3069 	 3.5300
  0.3400 	 1.3600 	 9.1658 	 10.9643 	 2.0556 	 53.4928 	 2.3331 	 48.3504 	 32.8127 	 5.1424 	 3.5300
  0.3400 	 1.3700 	 9.1759 	 10.9583 	 2.0445 	 53.5189 	 2.3271 	 48.5520 	 31.3740 	 4.9669 	 3.5300
  0.3400 	 1.3100 	 9.1090 	 11.0142 	 2.1179 	 53.1231 	 2.3693 	 47.2657 	 39.4727 	 5.8574 	 3.5400
  0.3400 	 1.3200 	 9.1199 	 11.0076 	 2.1060 	 53.2056 	 2.3627 	 47.4773 	 38.1875 	 5.7283 	 3.5400
  0.3400 	 1.3300 	 9.1306 	 11.0011 	 2.0942 	 53.2781 	 2.3562 	 47.6869 	 36.8785 	 5.5912 	 3.5400
  0.3400 	 1.3400 	 9.1412 	 10.9947 	 2.0826 	 53.3401 	 2.3499 	 47.8944 	 35.5425 	 5.4457 	 3.5400
  0.3400 	 1.3500 	 9.1516 	 10.9884 	 2.0712 	 53.3910 	 2.3436 	 48.1000 	 34.1758 	 5.2909 	 3.5400
  0.3400 	 1.3600 	 9.1619 	 10.9822 	 2.0599 	 53.4299 	 2.3375 	 48.3037 	 32.7741 	 5.1262 	 3.5400
  0.3400 	 1.3700 	 9.1720 	 10.9762 	 2.0488 	 53.4559 	 2.3315 	 48.5054 	 31.3322 	 4.9506 	 3.5400
  0.3400 	 1.3100 	 9.1049 	 11.0323 	 2.1224 	 53.0604 	 2.3739 	 47.2186 	 39.4467 	 5.8419 	 3.5500
  0.3400 	 1.3200 	 9.1158 	 11.0256 	 2.1104 	 53.1429 	 2.3673 	 47.4303 	 38.1594 	 5.7127 	 3.5500
  0.3400 	 1.3300 	 9.1266 	 11.0191 	 2.0986 	 53.2155 	 2.3608 	 47.6399 	 36.8481 	 5.5755 	 3.5500
  0.3400 	 1.3400 	 9.1372 	 11.0127 	 2.0870 	 53.2775 	 2.3544 	 47.8476 	 35.5096 	 5.4299 	 3.5500
  0.3400 	 1.3500 	 9.1477 	 11.0064 	 2.0755 	 53.3283 	 2.3481 	 48.0533 	 34.1402 	 5.2750 	 3.5500
  0.3400 	 1.3600 	 9.1580 	 11.0001 	 2.0642 	 53.3672 	 2.3420 	 48.2570 	 32.7355 	 5.1101 	 3.5500
  0.3400 	 1.3700 	 9.1681 	 10.9940 	 2.0530 	 53.3931 	 2.3360 	 48.4588 	 31.2903 	 4.9343 	 3.5500
  0.3400 	 1.3100 	 9.1008 	 11.0503 	 2.1268 	 52.9980 	 2.3785 	 47.1716 	 39.4208 	 5.8264 	 3.5600
  0.3400 	 1.3200 	 9.1118 	 11.0436 	 2.1148 	 53.0805 	 2.3718 	 47.3834 	 38.1314 	 5.6971 	 3.5600
  0.3400 	 1.3300 	 9.1226 	 11.0371 	 2.1030 	 53.1530 	 2.3653 	 47.5931 	 36.8177 	 5.5599 	 3.5600
  0.3400 	 1.3400 	 9.1333 	 11.0306 	 2.0913 	 53.2150 	 2.3589 	 47.8009 	 35.4767 	 5.4142 	 3.5600
  0.3400 	 1.3500 	 9.1437 	 11.0243 	 2.0798 	 53.2658 	 2.3526 	 48.0066 	 34.1046 	 5.2592 	 3.5600
  0.3400 	 1.3600 	 9.1541 	 11.0180 	 2.0685 	 53.3046 	 2.3465 	 48.2105 	 32.6970 	 5.0941 	 3.5600
  0.3400 	 1.3700 	 9.1643 	 11.0119 	 2.0573 	 53.3304 	 2.3404 	 48.4123 	 31.2486 	 4.9181 	 3.5600
  0.3400 	 1.3100 	 9.0968 	 11.0684 	 2.1313 	 52.9357 	 2.3831 	 47.1247 	 39.3949 	 5.8110 	 3.5700
  0.3400 	 1.3200 	 9.1078 	 11.0617 	 2.1192 	 53.0182 	 2.3764 	 47.3366 	 38.1033 	 5.6817 	 3.5700
  0.3400 	 1.3300 	 9.1186 	 11.0551 	 2.1074 	 53.0908 	 2.3698 	 47.5464 	 36.7874 	 5.5444 	 3.5700
  0.3400 	 1.3400 	 9.1293 	 11.0486 	 2.0957 	 53.1528 	 2.3634 	 47.7542 	 35.4439 	 5.3985 	 3.5700
  0.3400 	 1.3500 	 9.1398 	 11.0422 	 2.0842 	 53.2035 	 2.3571 	 47.9601 	 34.0691 	 5.2434 	 3.5700
  0.3400 	 1.3600 	 9.1502 	 11.0359 	 2.0728 	 53.2422 	 2.3509 	 48.1640 	 32.6585 	 5.0782 	 3.5700
  0.3400 	 1.3700 	 9.1604 	 11.0297 	 2.0616 	 53.2679 	 2.3448 	 48.3660 	 31.2068 	 4.9019 	 3.5700
  0.3400 	 1.3100 	 9.0927 	 11.0864 	 2.1357 	 52.8736 	 2.3876 	 47.0779 	 39.3691 	 5.7957 	 3.5800
  0.3400 	 1.3200 	 9.1037 	 11.0796 	 2.1237 	 52.9561 	 2.3809 	 47.2899 	 38.0753 	 5.6663 	 3.5800
  0.3400 	 1.3300 	 9.1146 	 11.0730 	 2.1118 	 53.0287 	 2.3743 	 47.4998 	 36.7571 	 5.5289 	 3.5800
  0.3400 	 1.3400 	 9.1253 	 11.0665 	 2.1001 	 53.0906 	 2.3679 	 47.7077 	 35.4111 	 5.3829 	 3.5800
  0.3400 	 1.3500 	 9.1358 	 11.0601 	 2.0885 	 53.1413 	 2.3616 	 47.9137 	 34.0336 	 5.2277 	 3.5800
  0.3400 	 1.3600 	 9.1462 	 11.0538 	 2.0771 	 53.1800 	 2.3554 	 48.1176 	 32.6200 	 5.0623 	 3.5800
  0.3400 	 1.3700 	 9.1565 	 11.0476 	 2.0659 	 53.2056 	 2.3493 	 48.3197 	 31.1651 	 4.8859 	 3.5800
  0.3400 	 1.3100 	 9.0886 	 11.1044 	 2.1402 	 52.8116 	 2.3922 	 47.0312 	 39.3432 	 5.7804 	 3.5900
  0.3400 	 1.3200 	 9.0997 	 11.0976 	 2.1281 	 52.8942 	 2.3855 	 47.2433 	 38.0474 	 5.6509 	 3.5900
  0.3400 	 1.3300 	 9.1106 	 11.0910 	 2.1162 	 52.9668 	 2.3789 	 47.4533 	 36.7268 	 5.5135 	 3.5900
  0.3400 	 1.3400 	 9.1213 	 11.0844 	 2.1044 	 53.0287 	 2.3724 	 47.6613 	 35.3783 	 5.3674 	 3.5900
  0.3400 	 1.3500 	 9.1319 	 11.0780 	 2.0928 	 53.0794 	 2.3660 	 47.8673 	 33.9981 	 5.2120 	 3.5900
  0.3400 	 1.3600 	 9.1423 	 11.0716 	 2.0814 	 53.1179 	 2.3598 	 48.0714 	 32.5816 	 5.0465 	 3.5900
  0.3400 	 1.3700 	 9.1526 	 11.0654 	 2.0701 	 53.1434 	 2.3537 	 48.2735 	 31.1234 	 4.8699 	 3.5900
  0.3400 	 1.3100 	 9.0846 	 11.1224 	 2.1446 	 52.7499 	 2.3968 	 46.9846 	 39.3174 	 5.7652 	 3.6000
  0.3400 	 1.3200 	 9.0957 	 11.1156 	 2.1325 	 52.8325 	 2.3900 	 47.1968 	 38.0194 	 5.6357 	 3.6000
  0.3400 	 1.3300 	 9.1066 	 11.1089 	 2.1205 	 52.9050 	 2.3834 	 47.4069 	 36.6966 	 5.4981 	 3.6000
  0.3400 	 1.3400 	 9.1173 	 11.1023 	 2.1088 	 52.9669 	 2.3769 	 47.6150 	 35.3456 	 5.3520 	 3.6000
  0.3400 	 1.3500 	 9.1279 	 11.0958 	 2.0971 	 53.0176 	 2.3705 	 47.8211 	 33.9626 	 5.1965 	 3.6000
  0.3400 	 1.3600 	 9.1384 	 11.0895 	 2.0857 	 53.0561 	 2.3643 	 48.0252 	 32.5432 	 5.0308 	 3.6000
  0.3400 	 1.3700 	 9.1487 	 11.0832 	 2.0744 	 53.0814 	 2.3581 	 48.2275 	 31.0817 	 4.8540 	 3.6000
  0.3500 	 1.3200 	 9.1764 	 10.7537 	 2.0402 	 54.3915 	 2.2987 	 48.1466 	 39.3513 	 6.2449 	 3.4000
  0.3500 	 1.3300 	 9.1867 	 10.7476 	 2.0288 	 54.4701 	 2.2926 	 48.3549 	 38.1335 	 6.1152 	 3.4000
  0.3500 	 1.3400 	 9.1969 	 10.7417 	 2.0176 	 54.5391 	 2.2865 	 48.5612 	 36.8950 	 5.9779 	 3.4000
  0.3500 	 1.3500 	 9.2069 	 10.7358 	 2.0065 	 54.5980 	 2.2806 	 48.7654 	 35.6332 	 5.8326 	 3.4000
  0.3500 	 1.3600 	 9.2168 	 10.7301 	 1.9956 	 54.6463 	 2.2748 	 48.9678 	 34.3453 	 5.6785 	 3.4000
  0.3500 	 1.3700 	 9.2265 	 10.7244 	 1.9849 	 54.6832 	 2.2691 	 49.1681 	 33.0275 	 5.5151 	 3.4000
  0.3500 	 1.3800 	 9.2361 	 10.7188 	 1.9743 	 54.7080 	 2.2636 	 49.3665 	 31.6758 	 5.3415 	 3.4000
  0.3500 	 1.3900 	 9.2455 	 10.7133 	 1.9638 	 54.7197 	 2.2581 	 49.5631 	 30.2852 	 5.1566 	 3.4000
  0.3500 	 1.3200 	 9.1724 	 10.7719 	 2.0446 	 54.3258 	 2.3033 	 48.0981 	 39.3250 	 6.2278 	 3.4100
  0.3500 	 1.3300 	 9.1827 	 10.7658 	 2.0332 	 54.4044 	 2.2971 	 48.3065 	 38.1050 	 6.0980 	 3.4100
  0.3500 	 1.3400 	 9.1929 	 10.7598 	 2.0220 	 54.4735 	 2.2911 	 48.5128 	 36.8642 	 5.9606 	 3.4100
  0.3500 	 1.3500 	 9.2029 	 10.7540 	 2.0109 	 54.5324 	 2.2851 	 48.7172 	 35.6000 	 5.8152 	 3.4100
  0.3500 	 1.3600 	 9.2128 	 10.7482 	 2.0000 	 54.5806 	 2.2793 	 48.9196 	 34.3094 	 5.6610 	 3.4100
  0.3500 	 1.3700 	 9.2226 	 10.7425 	 1.9892 	 54.6175 	 2.2736 	 49.1201 	 32.9888 	 5.4974 	 3.4100
  0.3500 	 1.3800 	 9.2322 	 10.7369 	 1.9786 	 54.6422 	 2.2680 	 49.3186 	 31.6340 	 5.3236 	 3.4100
  0.3500 	 1.3900 	 9.2417 	 10.7313 	 1.9681 	 54.6537 	 2.2625 	 49.5152 	 30.2399 	 5.1385 	 3.4100
  0.3500 	 1.3200 	 9.1683 	 10.7901 	 2.0491 	 54.2604 	 2.3079 	 48.0497 	 39.2987 	 6.2107 	 3.4200
  0.3500 	 1.3300 	 9.1787 	 10.7840 	 2.0376 	 54.3390 	 2.3017 	 48.2582 	 38.0765 	 6.0809 	 3.4200
  0.3500 	 1.3400 	 9.1889 	 10.7780 	 2.0264 	 54.4080 	 2.2956 	 48.4646 	 36.8335 	 5.9434 	 3.4200
  0.3500 	 1.3500 	 9.1990 	 10.7721 	 2.0153 	 54.4669 	 2.2897 	 48.6691 	 35.5669 	 5.7978 	 3.4200
  0.3500 	 1.3600 	 9.2089 	 10.7663 	 2.0043 	 54.5151 	 2.2838 	 48.8716 	 34.2736 	 5.6435 	 3.4200
  0.3500 	 1.3700 	 9.2187 	 10.7605 	 1.9935 	 54.5520 	 2.2781 	 49.0722 	 32.9501 	 5.4798 	 3.4200
  0.3500 	 1.3800 	 9.2283 	 10.7549 	 1.9828 	 54.5766 	 2.2725 	 49.2708 	 31.5922 	 5.3058 	 3.4200
  0.3500 	 1.3900 	 9.2378 	 10.7493 	 1.9723 	 54.5879 	 2.2670 	 49.4675 	 30.1947 	 5.1204 	 3.4200
  0.3500 	 1.3200 	 9.1643 	 10.8083 	 2.0535 	 54.1951 	 2.3125 	 48.0014 	 39.2724 	 6.1937 	 3.4300
  0.3500 	 1.3300 	 9.1747 	 10.8022 	 2.0420 	 54.2738 	 2.3062 	 48.2100 	 38.0481 	 6.0638 	 3.4300
  0.3500 	 1.3400 	 9.1849 	 10.7961 	 2.0307 	 54.3428 	 2.3001 	 48.4165 	 36.8028 	 5.9263 	 3.4300
  0.3500 	 1.3500 	 9.1951 	 10.7902 	 2.0196 	 54.4017 	 2.2942 	 48.6211 	 35.5337 	 5.7806 	 3.4300
  0.3500 	 1.3600 	 9.2050 	 10.7843 	 2.0086 	 54.4499 	 2.2883 	 48.8237 	 34.2378 	 5.6262 	 3.4300
  0.3500 	 1.3700 	 9.2148 	 10.7786 	 1.9978 	 54.4866 	 2.2826 	 49.0244 	 32.9115 	 5.4623 	 3.4300
  0.3500 	 1.3800 	 9.2245 	 10.7729 	 1.9871 	 54.5111 	 2.2769 	 49.2231 	 31.5504 	 5.2880 	 3.4300
  0.3500 	 1.3900 	 9.2340 	 10.7673 	 1.9766 	 54.5224 	 2.2714 	 49.4199 	 30.1494 	 5.1025 	 3.4300
  0.3500 	 1.3200 	 9.1602 	 10.8265 	 2.0579 	 54.1300 	 2.3170 	 47.9532 	 39.2461 	 6.1769 	 3.4400
  0.3500 	 1.3300 	 9.1707 	 10.8203 	 2.0464 	 54.2087 	 2.3108 	 48.1619 	 38.0198 	 6.0469 	 3.4400
  0.3500 	 1.3400 	 9.1810 	 10.8143 	 2.0351 	 54.2778 	 2.3047 	 48.3685 	 36.7721 	 5.9092 	 3.4400
  0.3500 	 1.3500 	 9.1911 	 10.8083 	 2.0240 	 54.3366 	 2.2987 	 48.5732 	 35.5006 	 5.7634 	 3.4400
  0.3500 	 1.3600 	 9.2011 	 10.8024 	 2.0130 	 54.3848 	 2.2928 	 48.7759 	 34.2021 	 5.6089 	 3.4400
  0.3500 	 1.3700 	 9.2109 	 10.7966 	 2.0021 	 54.4215 	 2.2870 	 48.9767 	 32.8729 	 5.4448 	 3.4400
  0.3500 	 1.3800 	 9.2206 	 10.7909 	 1.9914 	 54.4459 	 2.2814 	 49.1755 	 31.5086 	 5.2704 	 3.4400
  0.3500 	 1.3900 	 9.2302 	 10.7853 	 1.9808 	 54.4570 	 2.2758 	 49.3724 	 30.1042 	 5.0846 	 3.4400
  0.3500 	 1.3200 	 9.1562 	 10.8447 	 2.0624 	 54.0652 	 2.3216 	 47.9051 	 39.2199 	 6.1601 	 3.4500
  0.3500 	 1.3300 	 9.1667 	 10.8385 	 2.0509 	 54.1439 	 2.3153 	 48.1139 	 37.9914 	 6.0300 	 3.4500
  0.3500 	 1.3400 	 9.1770 	 10.8324 	 2.0395 	 54.2129 	 2.3092 	 48.3207 	 36.7415 	 5.8923 	 3.4500
  0.3500 	 1.3500 	 9.1872 	 10.8264 	 2.0283 	 54.2718 	 2.3032 	 48.5254 	 35.4676 	 5.7464 	 3.4500
  0.3500 	 1.3600 	 9.1972 	 10.8204 	 2.0173 	 54.3199 	 2.2973 	 48.7282 	 34.1664 	 5.5917 	 3.4500
  0.3500 	 1.3700 	 9.2070 	 10.8146 	 2.0064 	 54.3565 	 2.2915 	 48.9291 	 32.8343 	 5.4274 	 3.4500
  0.3500 	 1.3800 	 9.2168 	 10.8089 	 1.9956 	 54.3808 	 2.2858 	 49.1280 	 31.4669 	 5.2528 	 3.4500
  0.3500 	 1.3900 	 9.2263 	 10.8033 	 1.9850 	 54.3917 	 2.2802 	 49.3250 	 30.0590 	 5.0667 	 3.4500
  0.3500 	 1.3200 	 9.1522 	 10.8628 	 2.0668 	 54.0005 	 2.3262 	 47.8572 	 39.1937 	 6.1433 	 3.4600
  0.3500 	 1.3300 	 9.1627 	 10.8566 	 2.0553 	 54.0792 	 2.3199 	 48.0660 	 37.9631 	 6.0132 	 3.4600
  0.3500 	 1.3400 	 9.1730 	 10.8505 	 2.0439 	 54.1483 	 2.3137 	 48.2729 	 36.7109 	 5.8754 	 3.4600
  0.3500 	 1.3500 	 9.1832 	 10.8444 	 2.0327 	 54.2071 	 2.3077 	 48.4777 	 35.4345 	 5.7294 	 3.4600
  0.3500 	 1.3600 	 9.1933 	 10.8385 	 2.0216 	 54.2552 	 2.3017 	 48.6806 	 34.1307 	 5.5745 	 3.4600
  0.3500 	 1.3700 	 9.2031 	 10.8326 	 2.0107 	 54.2917 	 2.2959 	 48.8816 	 32.7957 	 5.4101 	 3.4600
  0.3500 	 1.3800 	 9.2129 	 10.8269 	 1.9999 	 54.3159 	 2.2902 	 49.0806 	 31.4252 	 5.2353 	 3.4600
  0.3500 	 1.3900 	 9.2225 	 10.8212 	 1.9893 	 54.3267 	 2.2846 	 49.2777 	 30.0138 	 5.0490 	 3.4600
  0.3500 	 1.3200 	 9.1481 	 10.8810 	 2.0712 	 53.9360 	 2.3308 	 47.8093 	 39.1675 	 6.1267 	 3.4700
  0.3500 	 1.3300 	 9.1587 	 10.8747 	 2.0597 	 54.0147 	 2.3244 	 48.0183 	 37.9348 	 5.9965 	 3.4700
  0.3500 	 1.3400 	 9.1690 	 10.8685 	 2.0483 	 54.0838 	 2.3183 	 48.2252 	 36.6803 	 5.8586 	 3.4700
  0.3500 	 1.3500 	 9.1793 	 10.8625 	 2.0370 	 54.1426 	 2.3122 	 48.4302 	 35.4015 	 5.7125 	 3.4700
  0.3500 	 1.3600 	 9.1893 	 10.8565 	 2.0259 	 54.1906 	 2.3062 	 48.6331 	 34.0950 	 5.5575 	 3.4700
  0.3500 	 1.3700 	 9.1993 	 10.8506 	 2.0150 	 54.2271 	 2.3004 	 48.8342 	 32.7572 	 5.3929 	 3.4700
  0.3500 	 1.3800 	 9.2090 	 10.8448 	 2.0042 	 54.2512 	 2.2947 	 49.0333 	 31.3835 	 5.2179 	 3.4700
  0.3500 	 1.3200 	 9.1441 	 10.8991 	 2.0757 	 53.8717 	 2.3353 	 47.7615 	 39.1414 	 6.1101 	 3.4800
  0.3500 	 1.3300 	 9.1547 	 10.8928 	 2.0641 	 53.9504 	 2.3290 	 47.9706 	 37.9065 	 5.9798 	 3.4800
  0.3500 	 1.3400 	 9.1651 	 10.8866 	 2.0526 	 54.0195 	 2.3228 	 48.1776 	 36.6498 	 5.8419 	 3.4800
  0.3500 	 1.3500 	 9.1753 	 10.8805 	 2.0414 	 54.0783 	 2.3167 	 48.3827 	 35.3685 	 5.6956 	 3.4800
  0.3500 	 1.3600 	 9.1854 	 10.8745 	 2.0302 	 54.1263 	 2.3107 	 48.5858 	 34.0594 	 5.5405 	 3.4800
  0.3500 	 1.3700 	 9.1954 	 10.8686 	 2.0193 	 54.1627 	 2.3048 	 48.7869 	 32.7187 	 5.3758 	 3.4800
  0.3500 	 1.3800 	 9.2052 	 10.8628 	 2.0084 	 54.1867 	 2.2991 	 48.9861 	 31.3419 	 5.2006 	 3.4800
  0.3500 	 1.3200 	 9.1401 	 10.9172 	 2.0801 	 53.8075 	 2.3399 	 47.7139 	 39.1153 	 6.0936 	 3.4900
  0.3500 	 1.3300 	 9.1507 	 10.9109 	 2.0685 	 53.8863 	 2.3335 	 47.9231 	 37.8783 	 5.9633 	 3.4900
  0.3500 	 1.3400 	 9.1611 	 10.9047 	 2.0570 	 53.9554 	 2.3273 	 48.1302 	 36.6193 	 5.8252 	 3.4900
  0.3500 	 1.3500 	 9.1714 	 10.8985 	 2.0457 	 54.0142 	 2.3212 	 48.3353 	 35.3356 	 5.6789 	 3.4900
  0.3500 	 1.3600 	 9.1815 	 10.8925 	 2.0345 	 54.0621 	 2.3152 	 48.5385 	 34.0238 	 5.5236 	 3.4900
  0.3500 	 1.3700 	 9.1915 	 10.8866 	 2.0235 	 54.0985 	 2.3093 	 48.7397 	 32.6802 	 5.3588 	 3.4900
  0.3500 	 1.3800 	 9.2013 	 10.8807 	 2.0127 	 54.1223 	 2.3035 	 48.9390 	 31.3003 	 5.1833 	 3.4900
  0.3500 	 1.3200 	 9.1360 	 10.9353 	 2.0845 	 53.7436 	 2.3445 	 47.6664 	 39.0892 	 6.0772 	 3.5000
  0.3500 	 1.3300 	 9.1466 	 10.9290 	 2.0729 	 53.8224 	 2.3381 	 47.8756 	 37.8501 	 5.9468 	 3.5000
  0.3500 	 1.3400 	 9.1571 	 10.9227 	 2.0614 	 53.8915 	 2.3318 	 48.0828 	 36.5888 	 5.8086 	 3.5000
  0.3500 	 1.3500 	 9.1674 	 10.9165 	 2.0500 	 53.9503 	 2.3257 	 48.2881 	 35.3026 	 5.6622 	 3.5000 <========= d2pol SINGLE kinematics for coverage of both (300,400)
  0.3500 	 1.3600 	 9.1776 	 10.9105 	 2.0389 	 53.9981 	 2.3197 	 48.4913 	 33.9883 	 5.5068 	 3.5000
  0.3500 	 1.3700 	 9.1876 	 10.9045 	 2.0278 	 54.0344 	 2.3137 	 48.6926 	 32.6418 	 5.3418 	 3.5000
  0.3500 	 1.3800 	 9.1975 	 10.8986 	 2.0170 	 54.0582 	 2.3080 	 48.8920 	 31.2587 	 5.1662 	 3.5000
  0.3500 	 1.3200 	 9.1320 	 10.9534 	 2.0889 	 53.6798 	 2.3490 	 47.6189 	 39.0631 	 6.0609 	 3.5100
  0.3500 	 1.3300 	 9.1426 	 10.9470 	 2.0773 	 53.7587 	 2.3426 	 47.8283 	 37.8219 	 5.9304 	 3.5100
  0.3500 	 1.3400 	 9.1531 	 10.9407 	 2.0657 	 53.8277 	 2.3363 	 48.0356 	 36.5584 	 5.7922 	 3.5100
  0.3500 	 1.3500 	 9.1635 	 10.9345 	 2.0544 	 53.8865 	 2.3302 	 48.2409 	 35.2698 	 5.6456 	 3.5100
  0.3500 	 1.3600 	 9.1737 	 10.9284 	 2.0432 	 53.9343 	 2.3241 	 48.4442 	 33.9527 	 5.4901 	 3.5100
  0.3500 	 1.3700 	 9.1837 	 10.9224 	 2.0321 	 53.9706 	 2.3182 	 48.6457 	 32.6034 	 5.3249 	 3.5100
  0.3500 	 1.3800 	 9.1936 	 10.9165 	 2.0212 	 53.9942 	 2.3124 	 48.8452 	 31.2171 	 5.1491 	 3.5100
  0.3500 	 1.3200 	 9.1279 	 10.9715 	 2.0934 	 53.6162 	 2.3536 	 47.5716 	 39.0371 	 6.0446 	 3.5200
  0.3500 	 1.3300 	 9.1386 	 10.9651 	 2.0817 	 53.6951 	 2.3472 	 47.7810 	 37.7937 	 5.9141 	 3.5200
  0.3500 	 1.3400 	 9.1492 	 10.9587 	 2.0701 	 53.7642 	 2.3408 	 47.9884 	 36.5280 	 5.7757 	 3.5200
  0.3500 	 1.3500 	 9.1595 	 10.9525 	 2.0587 	 53.8229 	 2.3347 	 48.1938 	 35.2369 	 5.6291 	 3.5200
  0.3500 	 1.3600 	 9.1697 	 10.9464 	 2.0475 	 53.8707 	 2.3286 	 48.3973 	 33.9172 	 5.4734 	 3.5200
  0.3500 	 1.3700 	 9.1798 	 10.9404 	 2.0364 	 53.9069 	 2.3226 	 48.5988 	 32.5650 	 5.3081 	 3.5200
  0.3500 	 1.3800 	 9.1897 	 10.9344 	 2.0255 	 53.9304 	 2.3168 	 48.7984 	 31.1756 	 5.1321 	 3.5200
  0.3500 	 1.3200 	 9.1239 	 10.9895 	 2.0978 	 53.5528 	 2.3582 	 47.5244 	 39.0111 	 6.0284 	 3.5300
  0.3500 	 1.3300 	 9.1346 	 10.9831 	 2.0861 	 53.6317 	 2.3517 	 47.7339 	 37.7656 	 5.8978 	 3.5300
  0.3500 	 1.3400 	 9.1452 	 10.9767 	 2.0745 	 53.7008 	 2.3454 	 47.9414 	 36.4976 	 5.7594 	 3.5300
  0.3500 	 1.3500 	 9.1556 	 10.9705 	 2.0631 	 53.7595 	 2.3391 	 48.1469 	 35.2041 	 5.6126 	 3.5300
  0.3500 	 1.3600 	 9.1658 	 10.9643 	 2.0518 	 53.8073 	 2.3331 	 48.3504 	 33.8818 	 5.4569 	 3.5300
  0.3500 	 1.3700 	 9.1759 	 10.9583 	 2.0407 	 53.8434 	 2.3271 	 48.5520 	 32.5267 	 5.2913 	 3.5300
  0.3500 	 1.3800 	 9.1859 	 10.9523 	 2.0297 	 53.8668 	 2.3212 	 48.7517 	 31.1340 	 5.1151 	 3.5300
  0.3500 	 1.3200 	 9.1199 	 11.0076 	 2.1022 	 53.4896 	 2.3627 	 47.4773 	 38.9852 	 6.0123 	 3.5400
  0.3500 	 1.3300 	 9.1306 	 11.0011 	 2.0904 	 53.5685 	 2.3562 	 47.6869 	 37.7375 	 5.8816 	 3.5400
  0.3500 	 1.3400 	 9.1412 	 10.9947 	 2.0788 	 53.6376 	 2.3499 	 47.8944 	 36.4672 	 5.7431 	 3.5400
  0.3500 	 1.3500 	 9.1516 	 10.9884 	 2.0674 	 53.6963 	 2.3436 	 48.1000 	 35.1713 	 5.5963 	 3.5400
  0.3500 	 1.3600 	 9.1619 	 10.9822 	 2.0561 	 53.7440 	 2.3375 	 48.3037 	 33.8463 	 5.4404 	 3.5400
  0.3500 	 1.3700 	 9.1720 	 10.9762 	 2.0450 	 53.7800 	 2.3315 	 48.5054 	 32.4883 	 5.2747 	 3.5400
  0.3500 	 1.3800 	 9.1820 	 10.9702 	 2.0340 	 53.8034 	 2.3257 	 48.7051 	 31.0925 	 5.0983 	 3.5400
  0.3500 	 1.3200 	 9.1158 	 11.0256 	 2.1066 	 53.4266 	 2.3673 	 47.4303 	 38.9592 	 5.9963 	 3.5500
  0.3500 	 1.3300 	 9.1266 	 11.0191 	 2.0948 	 53.5055 	 2.3608 	 47.6399 	 37.7095 	 5.8655 	 3.5500
  0.3500 	 1.3400 	 9.1372 	 11.0127 	 2.0832 	 53.5746 	 2.3544 	 47.8476 	 36.4369 	 5.7270 	 3.5500
  0.3500 	 1.3500 	 9.1477 	 11.0064 	 2.0717 	 53.6333 	 2.3481 	 48.0533 	 35.1385 	 5.5800 	 3.5500
  0.3500 	 1.3600 	 9.1580 	 11.0001 	 2.0604 	 53.6810 	 2.3420 	 48.2570 	 33.8109 	 5.4240 	 3.5500
  0.3500 	 1.3700 	 9.1681 	 10.9940 	 2.0492 	 53.7169 	 2.3360 	 48.4588 	 32.4500 	 5.2581 	 3.5500
  0.3500 	 1.3800 	 9.1781 	 10.9880 	 2.0382 	 53.7401 	 2.3301 	 48.6586 	 31.0511 	 5.0815 	 3.5500
  0.3500 	 1.3200 	 9.1118 	 11.0436 	 2.1111 	 53.3637 	 2.3718 	 47.3834 	 38.9333 	 5.9804 	 3.5600
  0.3500 	 1.3300 	 9.1226 	 11.0371 	 2.0992 	 53.4427 	 2.3653 	 47.5931 	 37.6815 	 5.8495 	 3.5600
  0.3500 	 1.3400 	 9.1333 	 11.0306 	 2.0876 	 53.5117 	 2.3589 	 47.8009 	 36.4066 	 5.7108 	 3.5600
  0.3500 	 1.3500 	 9.1437 	 11.0243 	 2.0761 	 53.5704 	 2.3526 	 48.0066 	 35.1058 	 5.5638 	 3.5600
  0.3500 	 1.3600 	 9.1541 	 11.0180 	 2.0647 	 53.6181 	 2.3465 	 48.2105 	 33.7755 	 5.4076 	 3.5600
  0.3500 	 1.3700 	 9.1643 	 11.0119 	 2.0535 	 53.6539 	 2.3404 	 48.4123 	 32.4118 	 5.2416 	 3.5600
  0.3500 	 1.3800 	 9.1743 	 11.0059 	 2.0425 	 53.6770 	 2.3345 	 48.6123 	 31.0096 	 5.0648 	 3.5600
  0.3500 	 1.3200 	 9.1078 	 11.0617 	 2.1155 	 53.3010 	 2.3764 	 47.3366 	 38.9074 	 5.9645 	 3.5700
  0.3500 	 1.3300 	 9.1186 	 11.0551 	 2.1036 	 53.3800 	 2.3698 	 47.5464 	 37.6535 	 5.8336 	 3.5700
  0.3500 	 1.3400 	 9.1293 	 11.0486 	 2.0919 	 53.4491 	 2.3634 	 47.7542 	 36.3764 	 5.6948 	 3.5700
  0.3500 	 1.3500 	 9.1398 	 11.0422 	 2.0804 	 53.5077 	 2.3571 	 47.9601 	 35.0731 	 5.5476 	 3.5700
  0.3500 	 1.3600 	 9.1502 	 11.0359 	 2.0690 	 53.5553 	 2.3509 	 48.1640 	 33.7402 	 5.3913 	 3.5700
  0.3500 	 1.3700 	 9.1604 	 11.0297 	 2.0578 	 53.5911 	 2.3448 	 48.3660 	 32.3736 	 5.2251 	 3.5700
  0.3500 	 1.3800 	 9.1704 	 11.0237 	 2.0467 	 53.6141 	 2.3389 	 48.5660 	 30.9682 	 5.0481 	 3.5700
  0.3500 	 1.3200 	 9.1037 	 11.0796 	 2.1199 	 53.2385 	 2.3809 	 47.2899 	 38.8816 	 5.9487 	 3.5800
  0.3500 	 1.3300 	 9.1146 	 11.0730 	 2.1080 	 53.3175 	 2.3743 	 47.4998 	 37.6255 	 5.8177 	 3.5800
  0.3500 	 1.3400 	 9.1253 	 11.0665 	 2.0963 	 53.3866 	 2.3679 	 47.7077 	 36.3461 	 5.6789 	 3.5800
  0.3500 	 1.3500 	 9.1358 	 11.0601 	 2.0847 	 53.4452 	 2.3616 	 47.9137 	 35.0404 	 5.5316 	 3.5800
  0.3500 	 1.3600 	 9.1462 	 11.0538 	 2.0733 	 53.4928 	 2.3554 	 48.1176 	 33.7049 	 5.3751 	 3.5800
  0.3500 	 1.3700 	 9.1565 	 11.0476 	 2.0621 	 53.5285 	 2.3493 	 48.3197 	 32.3353 	 5.2088 	 3.5800
  0.3500 	 1.3800 	 9.1666 	 11.0415 	 2.0510 	 53.5514 	 2.3433 	 48.5198 	 30.9269 	 5.0316 	 3.5800
  0.3500 	 1.3200 	 9.0997 	 11.0976 	 2.1243 	 53.1762 	 2.3855 	 47.2433 	 38.8557 	 5.9329 	 3.5900
  0.3500 	 1.3300 	 9.1106 	 11.0910 	 2.1124 	 53.2552 	 2.3789 	 47.4533 	 37.5976 	 5.8019 	 3.5900
  0.3500 	 1.3400 	 9.1213 	 11.0844 	 2.1006 	 53.3243 	 2.3724 	 47.6613 	 36.3159 	 5.6630 	 3.5900
  0.3500 	 1.3500 	 9.1319 	 11.0780 	 2.0890 	 53.3829 	 2.3660 	 47.8673 	 35.0078 	 5.5156 	 3.5900
  0.3500 	 1.3600 	 9.1423 	 11.0716 	 2.0776 	 53.4304 	 2.3598 	 48.0714 	 33.6696 	 5.3590 	 3.5900
  0.3500 	 1.3700 	 9.1526 	 11.0654 	 2.0663 	 53.4660 	 2.3537 	 48.2735 	 32.2972 	 5.1925 	 3.5900
  0.3500 	 1.3800 	 9.1627 	 11.0593 	 2.0552 	 53.4888 	 2.3477 	 48.4738 	 30.8855 	 5.0151 	 3.5900
  0.3500 	 1.3200 	 9.0957 	 11.1156 	 2.1287 	 53.1140 	 2.3900 	 47.1968 	 38.8300 	 5.9173 	 3.6000
  0.3500 	 1.3300 	 9.1066 	 11.1089 	 2.1168 	 53.1930 	 2.3834 	 47.4069 	 37.5697 	 5.7862 	 3.6000
  0.3500 	 1.3400 	 9.1173 	 11.1023 	 2.1050 	 53.2621 	 2.3769 	 47.6150 	 36.2858 	 5.6471 	 3.6000
  0.3500 	 1.3500 	 9.1279 	 11.0958 	 2.0934 	 53.3207 	 2.3705 	 47.8211 	 34.9752 	 5.4996 	 3.6000
  0.3500 	 1.3600 	 9.1384 	 11.0895 	 2.0819 	 53.3682 	 2.3643 	 48.0252 	 33.6343 	 5.3430 	 3.6000
  0.3500 	 1.3700 	 9.1487 	 11.0832 	 2.0706 	 53.4037 	 2.3581 	 48.2275 	 32.2590 	 5.1763 	 3.6000
  0.3500 	 1.3800 	 9.1588 	 11.0771 	 2.0595 	 53.4264 	 2.3521 	 48.4278 	 30.8442 	 4.9987 	 3.6000
  0.3600 	 1.3300 	 9.1867 	 10.7476 	 2.0249 	 54.7605 	 2.2926 	 48.3549 	 38.8682 	 6.4056 	 3.4000
  0.3600 	 1.3400 	 9.1969 	 10.7417 	 2.0137 	 54.8355 	 2.2865 	 48.5612 	 37.6852 	 6.2744 	 3.4000
  0.3600 	 1.3500 	 9.2069 	 10.7358 	 2.0026 	 54.9011 	 2.2806 	 48.7654 	 36.4825 	 6.1357 	 3.4000
  0.3600 	 1.3600 	 9.2168 	 10.7301 	 1.9917 	 54.9567 	 2.2748 	 48.9678 	 35.2578 	 5.9890 	 3.4000
  0.3600 	 1.3700 	 9.2265 	 10.7244 	 1.9810 	 55.0019 	 2.2691 	 49.1681 	 34.0083 	 5.8338 	 3.4000
  0.3600 	 1.3800 	 9.2361 	 10.7188 	 1.9704 	 55.0359 	 2.2636 	 49.3665 	 32.7306 	 5.6693 	 3.4000
  0.3600 	 1.3900 	 9.2455 	 10.7133 	 1.9599 	 55.0580 	 2.2581 	 49.5631 	 31.4209 	 5.4949 	 3.4000
  0.3600 	 1.4000 	 9.2548 	 10.7079 	 1.9496 	 55.0672 	 2.2527 	 49.7577 	 30.0746 	 5.3095 	 3.4000
  0.3600 	 1.3300 	 9.1827 	 10.7658 	 2.0293 	 54.6944 	 2.2971 	 48.3065 	 38.8419 	 6.3880 	 3.4100
  0.3600 	 1.3400 	 9.1929 	 10.7598 	 2.0181 	 54.7695 	 2.2911 	 48.5128 	 37.6568 	 6.2566 	 3.4100
  0.3600 	 1.3500 	 9.2029 	 10.7540 	 2.0070 	 54.8351 	 2.2851 	 48.7172 	 36.4519 	 6.1178 	 3.4100
  0.3600 	 1.3600 	 9.2128 	 10.7482 	 1.9961 	 54.8907 	 2.2793 	 48.9196 	 35.2248 	 5.9710 	 3.4100
  0.3600 	 1.3700 	 9.2226 	 10.7425 	 1.9853 	 54.9358 	 2.2736 	 49.1201 	 33.9727 	 5.8157 	 3.4100
  0.3600 	 1.3800 	 9.2322 	 10.7369 	 1.9747 	 54.9697 	 2.2680 	 49.3186 	 32.6922 	 5.6511 	 3.4100
  0.3600 	 1.3900 	 9.2417 	 10.7313 	 1.9642 	 54.9917 	 2.2625 	 49.5152 	 31.3794 	 5.4765 	 3.4100
  0.3600 	 1.4000 	 9.2510 	 10.7259 	 1.9538 	 55.0008 	 2.2572 	 49.7100 	 30.0298 	 5.2908 	 3.4100
  0.3600 	 1.3200 	 9.1683 	 10.7901 	 2.0452 	 54.5444 	 2.3079 	 48.0497 	 39.9851 	 6.4947 	 3.4200
  0.3600 	 1.3300 	 9.1787 	 10.7840 	 2.0337 	 54.6286 	 2.3017 	 48.2582 	 38.8157 	 6.3704 	 3.4200
  0.3600 	 1.3400 	 9.1889 	 10.7780 	 2.0225 	 54.7036 	 2.2956 	 48.4646 	 37.6284 	 6.2390 	 3.4200
  0.3600 	 1.3500 	 9.1990 	 10.7721 	 2.0114 	 54.7692 	 2.2897 	 48.6691 	 36.4213 	 6.1001 	 3.4200
  0.3600 	 1.3600 	 9.2089 	 10.7663 	 2.0004 	 54.8248 	 2.2838 	 48.8716 	 35.1918 	 5.9532 	 3.4200
  0.3600 	 1.3700 	 9.2187 	 10.7605 	 1.9896 	 54.8699 	 2.2781 	 49.0722 	 33.9371 	 5.7977 	 3.4200
  0.3600 	 1.3800 	 9.2283 	 10.7549 	 1.9789 	 54.9037 	 2.2725 	 49.2708 	 32.6538 	 5.6330 	 3.4200
  0.3600 	 1.3900 	 9.2378 	 10.7493 	 1.9684 	 54.9256 	 2.2670 	 49.4675 	 31.3380 	 5.4581 	 3.4200
  0.3600 	 1.3200 	 9.1643 	 10.8083 	 2.0496 	 54.4787 	 2.3125 	 48.0014 	 39.9608 	 6.4773 	 3.4300
  0.3600 	 1.3300 	 9.1747 	 10.8022 	 2.0381 	 54.5629 	 2.3062 	 48.2100 	 38.7894 	 6.3529 	 3.4300
  0.3600 	 1.3400 	 9.1849 	 10.7961 	 2.0269 	 54.6380 	 2.3001 	 48.4165 	 37.6001 	 6.2214 	 3.4300
  0.3600 	 1.3500 	 9.1951 	 10.7902 	 2.0157 	 54.7036 	 2.2942 	 48.6211 	 36.3908 	 6.0825 	 3.4300
  0.3600 	 1.3600 	 9.2050 	 10.7843 	 2.0047 	 54.7592 	 2.2883 	 48.8237 	 35.1589 	 5.9354 	 3.4300
  0.3600 	 1.3700 	 9.2148 	 10.7786 	 1.9939 	 54.8042 	 2.2826 	 49.0244 	 33.9015 	 5.7798 	 3.4300
  0.3600 	 1.3800 	 9.2245 	 10.7729 	 1.9832 	 54.8380 	 2.2769 	 49.2231 	 32.6154 	 5.6149 	 3.4300
  0.3600 	 1.3900 	 9.2340 	 10.7673 	 1.9727 	 54.8597 	 2.2714 	 49.4199 	 31.2966 	 5.4398 	 3.4300
  0.3600 	 1.3200 	 9.1602 	 10.8265 	 2.0540 	 54.4132 	 2.3170 	 47.9532 	 39.9366 	 6.4600 	 3.4400
  0.3600 	 1.3300 	 9.1707 	 10.8203 	 2.0426 	 54.4974 	 2.3108 	 48.1619 	 38.7632 	 6.3355 	 3.4400
  0.3600 	 1.3400 	 9.1810 	 10.8143 	 2.0312 	 54.5725 	 2.3047 	 48.3685 	 37.5718 	 6.2040 	 3.4400
  0.3600 	 1.3500 	 9.1911 	 10.8083 	 2.0201 	 54.6381 	 2.2987 	 48.5732 	 36.3602 	 6.0649 	 3.4400
  0.3600 	 1.3600 	 9.2011 	 10.8024 	 2.0091 	 54.6937 	 2.2928 	 48.7759 	 35.1259 	 5.9178 	 3.4400
  0.3600 	 1.3700 	 9.2109 	 10.7966 	 1.9982 	 54.7387 	 2.2870 	 48.9767 	 33.8660 	 5.7620 	 3.4400
  0.3600 	 1.3800 	 9.2206 	 10.7909 	 1.9875 	 54.7724 	 2.2814 	 49.1755 	 32.5771 	 5.5969 	 3.4400
  0.3600 	 1.3900 	 9.2302 	 10.7853 	 1.9769 	 54.7941 	 2.2758 	 49.3724 	 31.2552 	 5.4217 	 3.4400
  0.3600 	 1.3200 	 9.1562 	 10.8447 	 2.0585 	 54.3478 	 2.3216 	 47.9051 	 39.9124 	 6.4427 	 3.4500
  0.3600 	 1.3300 	 9.1667 	 10.8385 	 2.0470 	 54.4321 	 2.3153 	 48.1139 	 38.7370 	 6.3182 	 3.4500
  0.3600 	 1.3400 	 9.1770 	 10.8324 	 2.0356 	 54.5072 	 2.3092 	 48.3207 	 37.5435 	 6.1866 	 3.4500
  0.3600 	 1.3500 	 9.1872 	 10.8264 	 2.0244 	 54.5728 	 2.3032 	 48.5254 	 36.3297 	 6.0474 	 3.4500
  0.3600 	 1.3600 	 9.1972 	 10.8204 	 2.0134 	 54.6284 	 2.2973 	 48.7282 	 35.0930 	 5.9002 	 3.4500
  0.3600 	 1.3700 	 9.2070 	 10.8146 	 2.0025 	 54.6733 	 2.2915 	 48.9291 	 33.8305 	 5.7443 	 3.4500
  0.3600 	 1.3800 	 9.2168 	 10.8089 	 1.9917 	 54.7070 	 2.2858 	 49.1280 	 32.5388 	 5.5790 	 3.4500
  0.3600 	 1.3900 	 9.2263 	 10.8033 	 1.9811 	 54.7285 	 2.2802 	 49.3250 	 31.2139 	 5.4036 	 3.4500
  0.3600 	 1.3200 	 9.1522 	 10.8628 	 2.0629 	 54.2827 	 2.3262 	 47.8572 	 39.8882 	 6.4255 	 3.4600
  0.3600 	 1.3300 	 9.1627 	 10.8566 	 2.0514 	 54.3670 	 2.3199 	 48.0660 	 38.7109 	 6.3010 	 3.4600
  0.3600 	 1.3400 	 9.1730 	 10.8505 	 2.0400 	 54.4422 	 2.3137 	 48.2729 	 37.5153 	 6.1693 	 3.4600
  0.3600 	 1.3500 	 9.1832 	 10.8444 	 2.0288 	 54.5077 	 2.3077 	 48.4777 	 36.2992 	 6.0300 	 3.4600
  0.3600 	 1.3600 	 9.1933 	 10.8385 	 2.0177 	 54.5633 	 2.3017 	 48.6806 	 35.0601 	 5.8827 	 3.4600
  0.3600 	 1.3700 	 9.2031 	 10.8326 	 2.0068 	 54.6082 	 2.2959 	 48.8816 	 33.7951 	 5.7266 	 3.4600
  0.3600 	 1.3800 	 9.2129 	 10.8269 	 1.9960 	 54.6418 	 2.2902 	 49.0806 	 32.5006 	 5.5612 	 3.4600
  0.3600 	 1.3900 	 9.2225 	 10.8212 	 1.9854 	 54.6632 	 2.2846 	 49.2777 	 31.1725 	 5.3855 	 3.4600
  0.3600 	 1.3200 	 9.1481 	 10.8810 	 2.0674 	 54.2177 	 2.3308 	 47.8093 	 39.8640 	 6.4085 	 3.4700
  0.3600 	 1.3300 	 9.1587 	 10.8747 	 2.0558 	 54.3021 	 2.3244 	 48.0183 	 38.6847 	 6.2838 	 3.4700
  0.3600 	 1.3400 	 9.1690 	 10.8685 	 2.0444 	 54.3773 	 2.3183 	 48.2252 	 37.4871 	 6.1521 	 3.4700
  0.3600 	 1.3500 	 9.1793 	 10.8625 	 2.0331 	 54.4429 	 2.3122 	 48.4302 	 36.2688 	 6.0127 	 3.4700
  0.3600 	 1.3600 	 9.1893 	 10.8565 	 2.0220 	 54.4984 	 2.3062 	 48.6331 	 35.0273 	 5.8652 	 3.4700
  0.3600 	 1.3700 	 9.1993 	 10.8506 	 2.0111 	 54.5432 	 2.3004 	 48.8342 	 33.7596 	 5.7091 	 3.4700
  0.3600 	 1.3800 	 9.2090 	 10.8448 	 2.0003 	 54.5768 	 2.2947 	 49.0333 	 32.4623 	 5.5435 	 3.4700
  0.3600 	 1.3900 	 9.2187 	 10.8391 	 1.9896 	 54.5981 	 2.2890 	 49.2305 	 31.1312 	 5.3676 	 3.4700
  0.3600 	 1.3200 	 9.1441 	 10.8991 	 2.0718 	 54.1530 	 2.3353 	 47.7615 	 39.8399 	 6.3914 	 3.4800
  0.3600 	 1.3300 	 9.1547 	 10.8928 	 2.0602 	 54.2374 	 2.3290 	 47.9706 	 38.6586 	 6.2668 	 3.4800
  0.3600 	 1.3400 	 9.1651 	 10.8866 	 2.0487 	 54.3126 	 2.3228 	 48.1776 	 37.4589 	 6.1349 	 3.4800
  0.3600 	 1.3500 	 9.1753 	 10.8805 	 2.0375 	 54.3782 	 2.3167 	 48.3827 	 36.2383 	 5.9955 	 3.4800
  0.3600 	 1.3600 	 9.1854 	 10.8745 	 2.0263 	 54.4337 	 2.3107 	 48.5858 	 34.9945 	 5.8479 	 3.4800
  0.3600 	 1.3700 	 9.1954 	 10.8686 	 2.0154 	 54.4785 	 2.3048 	 48.7869 	 33.7242 	 5.6916 	 3.4800
  0.3600 	 1.3800 	 9.2052 	 10.8628 	 2.0045 	 54.5119 	 2.2991 	 48.9861 	 32.4241 	 5.5258 	 3.4800
  0.3600 	 1.3900 	 9.2148 	 10.8571 	 1.9939 	 54.5332 	 2.2935 	 49.1834 	 31.0899 	 5.3498 	 3.4800
  0.3600 	 1.3200 	 9.1401 	 10.9172 	 2.0762 	 54.0884 	 2.3399 	 47.7139 	 39.8158 	 6.3745 	 3.4900
  0.3600 	 1.3300 	 9.1507 	 10.9109 	 2.0646 	 54.1728 	 2.3335 	 47.9231 	 38.6325 	 6.2498 	 3.4900
  0.3600 	 1.3400 	 9.1611 	 10.9047 	 2.0531 	 54.2480 	 2.3273 	 48.1302 	 37.4307 	 6.1179 	 3.4900
  0.3600 	 1.3500 	 9.1714 	 10.8985 	 2.0418 	 54.3136 	 2.3212 	 48.3353 	 36.2079 	 5.9783 	 3.4900
  0.3600 	 1.3600 	 9.1815 	 10.8925 	 2.0307 	 54.3691 	 2.3152 	 48.5385 	 34.9617 	 5.8306 	 3.4900
  0.3600 	 1.3700 	 9.1915 	 10.8866 	 2.0197 	 54.4139 	 2.3093 	 48.7397 	 33.6888 	 5.6742 	 3.4900
  0.3600 	 1.3800 	 9.2013 	 10.8807 	 2.0088 	 54.4473 	 2.3035 	 48.9390 	 32.3859 	 5.5083 	 3.4900
  0.3600 	 1.3900 	 9.2110 	 10.8750 	 1.9981 	 54.4684 	 2.2979 	 49.1364 	 31.0487 	 5.3320 	 3.4900
  0.3600 	 1.3200 	 9.1360 	 10.9353 	 2.0806 	 54.0240 	 2.3445 	 47.6664 	 39.7917 	 6.3577 	 3.5000
  0.3600 	 1.3300 	 9.1466 	 10.9290 	 2.0690 	 54.1085 	 2.3381 	 47.8756 	 38.6065 	 6.2329 	 3.5000
  0.3600 	 1.3400 	 9.1571 	 10.9227 	 2.0575 	 54.1837 	 2.3318 	 48.0828 	 37.4026 	 6.1009 	 3.5000
  0.3600 	 1.3500 	 9.1674 	 10.9165 	 2.0461 	 54.2493 	 2.3257 	 48.2881 	 36.1776 	 5.9612 	 3.5000
  0.3600 	 1.3600 	 9.1776 	 10.9105 	 2.0350 	 54.3048 	 2.3197 	 48.4913 	 34.9289 	 5.8134 	 3.5000
  0.3600 	 1.3700 	 9.1876 	 10.9045 	 2.0239 	 54.3495 	 2.3137 	 48.6926 	 33.6535 	 5.6569 	 3.5000
  0.3600 	 1.3800 	 9.1975 	 10.8986 	 2.0131 	 54.3828 	 2.3080 	 48.8920 	 32.3478 	 5.4908 	 3.5000
  0.3600 	 1.3900 	 9.2072 	 10.8929 	 2.0023 	 54.4038 	 2.3023 	 49.0895 	 31.0074 	 5.3143 	 3.5000
  0.3600 	 1.3200 	 9.1320 	 10.9534 	 2.0851 	 53.9598 	 2.3490 	 47.6189 	 39.7676 	 6.3409 	 3.5100
  0.3600 	 1.3300 	 9.1426 	 10.9470 	 2.0734 	 54.0443 	 2.3426 	 47.8283 	 38.5805 	 6.2160 	 3.5100
  0.3600 	 1.3400 	 9.1531 	 10.9407 	 2.0619 	 54.1195 	 2.3363 	 48.0356 	 37.3744 	 6.0840 	 3.5100
  0.3600 	 1.3500 	 9.1635 	 10.9345 	 2.0505 	 54.1851 	 2.3302 	 48.2409 	 36.1472 	 5.9443 	 3.5100
  0.3600 	 1.3600 	 9.1737 	 10.9284 	 2.0393 	 54.2406 	 2.3241 	 48.4442 	 34.8962 	 5.7963 	 3.5100
  0.3600 	 1.3700 	 9.1837 	 10.9224 	 2.0282 	 54.2853 	 2.3182 	 48.6457 	 33.6182 	 5.6396 	 3.5100
  0.3600 	 1.3800 	 9.1936 	 10.9165 	 2.0173 	 54.3185 	 2.3124 	 48.8452 	 32.3096 	 5.4734 	 3.5100
  0.3600 	 1.3900 	 9.2033 	 10.9107 	 2.0066 	 54.3394 	 2.3067 	 49.0427 	 30.9662 	 5.2967 	 3.5100
  0.3600 	 1.3200 	 9.1279 	 10.9715 	 2.0895 	 53.8958 	 2.3536 	 47.5716 	 39.7435 	 6.3242 	 3.5200
  0.3600 	 1.3300 	 9.1386 	 10.9651 	 2.0778 	 53.9803 	 2.3472 	 47.7810 	 38.5545 	 6.1993 	 3.5200
  0.3600 	 1.3400 	 9.1492 	 10.9587 	 2.0662 	 54.0556 	 2.3408 	 47.9884 	 37.3464 	 6.0671 	 3.5200
  0.3600 	 1.3500 	 9.1595 	 10.9525 	 2.0548 	 54.1212 	 2.3347 	 48.1938 	 36.1169 	 5.9273 	 3.5200
  0.3600 	 1.3600 	 9.1697 	 10.9464 	 2.0436 	 54.1766 	 2.3286 	 48.3973 	 34.8635 	 5.7793 	 3.5200
  0.3600 	 1.3700 	 9.1798 	 10.9404 	 2.0325 	 54.2213 	 2.3226 	 48.5988 	 33.5829 	 5.6225 	 3.5200
  0.3600 	 1.3800 	 9.1897 	 10.9344 	 2.0216 	 54.2544 	 2.3168 	 48.7984 	 32.2715 	 5.4560 	 3.5200
  0.3600 	 1.3900 	 9.1995 	 10.9286 	 2.0108 	 54.2752 	 2.3111 	 48.9961 	 30.9250 	 5.2792 	 3.5200
  0.3600 	 1.3200 	 9.1239 	 10.9895 	 2.0939 	 53.8320 	 2.3582 	 47.5244 	 39.7195 	 6.3076 	 3.5300
  0.3600 	 1.3300 	 9.1346 	 10.9831 	 2.0822 	 53.9165 	 2.3517 	 47.7339 	 38.5285 	 6.1826 	 3.5300
  0.3600 	 1.3400 	 9.1452 	 10.9767 	 2.0706 	 53.9918 	 2.3454 	 47.9414 	 37.3183 	 6.0504 	 3.5300
  0.3600 	 1.3500 	 9.1556 	 10.9705 	 2.0592 	 54.0574 	 2.3391 	 48.1469 	 36.0866 	 5.9105 	 3.5300
  0.3600 	 1.3600 	 9.1658 	 10.9643 	 2.0479 	 54.1128 	 2.3331 	 48.3504 	 34.8308 	 5.7624 	 3.5300
  0.3600 	 1.3700 	 9.1759 	 10.9583 	 2.0368 	 54.1574 	 2.3271 	 48.5520 	 33.5476 	 5.6054 	 3.5300
  0.3600 	 1.3800 	 9.1859 	 10.9523 	 2.0258 	 54.1905 	 2.3212 	 48.7517 	 32.2334 	 5.4388 	 3.5300
  0.3600 	 1.3900 	 9.1957 	 10.9464 	 2.0150 	 54.2112 	 2.3155 	 48.9495 	 30.8839 	 5.2617 	 3.5300
  0.3600 	 1.3200 	 9.1199 	 11.0076 	 2.0983 	 53.7683 	 2.3627 	 47.4773 	 39.6955 	 6.2911 	 3.5400
  0.3600 	 1.3300 	 9.1306 	 11.0011 	 2.0866 	 53.8529 	 2.3562 	 47.6869 	 38.5025 	 6.1660 	 3.5400
  0.3600 	 1.3400 	 9.1412 	 10.9947 	 2.0750 	 53.9282 	 2.3499 	 47.8944 	 37.2903 	 6.0337 	 3.5400
  0.3600 	 1.3500 	 9.1516 	 10.9884 	 2.0635 	 53.9938 	 2.3436 	 48.1000 	 36.0564 	 5.8937 	 3.5400
  0.3600 	 1.3600 	 9.1619 	 10.9822 	 2.0522 	 54.0492 	 2.3375 	 48.3037 	 34.7981 	 5.7455 	 3.5400
  0.3600 	 1.3700 	 9.1720 	 10.9762 	 2.0411 	 54.0937 	 2.3315 	 48.5054 	 33.5124 	 5.5884 	 3.5400
  0.3600 	 1.3800 	 9.1820 	 10.9702 	 2.0301 	 54.1267 	 2.3257 	 48.7051 	 32.1954 	 5.4216 	 3.5400
  0.3600 	 1.3900 	 9.1918 	 10.9643 	 2.0193 	 54.1473 	 2.3199 	 48.9030 	 30.8427 	 5.2443 	 3.5400
  0.3600 	 1.3200 	 9.1158 	 11.0256 	 2.1028 	 53.7049 	 2.3673 	 47.4303 	 39.6716 	 6.2746 	 3.5500
  0.3600 	 1.3300 	 9.1266 	 11.0191 	 2.0910 	 53.7895 	 2.3608 	 47.6399 	 38.4766 	 6.1495 	 3.5500
  0.3600 	 1.3400 	 9.1372 	 11.0127 	 2.0793 	 53.8648 	 2.3544 	 47.8476 	 37.2623 	 6.0171 	 3.5500
  0.3600 	 1.3500 	 9.1477 	 11.0064 	 2.0678 	 53.9304 	 2.3481 	 48.0533 	 36.0261 	 5.8771 	 3.5500
  0.3600 	 1.3600 	 9.1580 	 11.0001 	 2.0565 	 53.9857 	 2.3420 	 48.2570 	 34.7655 	 5.7287 	 3.5500
  0.3600 	 1.3700 	 9.1681 	 10.9940 	 2.0454 	 54.0302 	 2.3360 	 48.4588 	 33.4772 	 5.5715 	 3.5500
  0.3600 	 1.3800 	 9.1781 	 10.9880 	 2.0343 	 54.0632 	 2.3301 	 48.6586 	 32.1574 	 5.4045 	 3.5500
  0.3600 	 1.3900 	 9.1880 	 10.9821 	 2.0235 	 54.0837 	 2.3243 	 48.8566 	 30.8016 	 5.2270 	 3.5500
  0.3600 	 1.3200 	 9.1118 	 11.0436 	 2.1072 	 53.6416 	 2.3718 	 47.3834 	 39.6476 	 6.2582 	 3.5600
  0.3600 	 1.3300 	 9.1226 	 11.0371 	 2.0954 	 53.7262 	 2.3653 	 47.5931 	 38.4507 	 6.1331 	 3.5600
  0.3600 	 1.3400 	 9.1333 	 11.0306 	 2.0837 	 53.8015 	 2.3589 	 47.8009 	 37.2343 	 6.0006 	 3.5600
  0.3600 	 1.3500 	 9.1437 	 11.0243 	 2.0722 	 53.8671 	 2.3526 	 48.0066 	 35.9959 	 5.8605 	 3.5600
  0.3600 	 1.3600 	 9.1541 	 11.0180 	 2.0608 	 53.9225 	 2.3465 	 48.2105 	 34.7329 	 5.7120 	 3.5600
  0.3600 	 1.3700 	 9.1643 	 11.0119 	 2.0496 	 53.9669 	 2.3404 	 48.4123 	 33.4420 	 5.5546 	 3.5600
  0.3600 	 1.3800 	 9.1743 	 11.0059 	 2.0386 	 53.9998 	 2.3345 	 48.6123 	 32.1194 	 5.3875 	 3.5600
  0.3600 	 1.3900 	 9.1842 	 10.9999 	 2.0277 	 54.0202 	 2.3287 	 48.8103 	 30.7605 	 5.2098 	 3.5600
  0.3600 	 1.3200 	 9.1078 	 11.0617 	 2.1116 	 53.5785 	 2.3764 	 47.3366 	 39.6237 	 6.2419 	 3.5700
  0.3600 	 1.3300 	 9.1186 	 11.0551 	 2.0997 	 53.6631 	 2.3698 	 47.5464 	 38.4248 	 6.1167 	 3.5700
  0.3600 	 1.3400 	 9.1293 	 11.0486 	 2.0880 	 53.7385 	 2.3634 	 47.7542 	 37.2063 	 5.9842 	 3.5700
  0.3600 	 1.3500 	 9.1398 	 11.0422 	 2.0765 	 53.8040 	 2.3571 	 47.9601 	 35.9658 	 5.8439 	 3.5700
  0.3600 	 1.3600 	 9.1502 	 11.0359 	 2.0651 	 53.8594 	 2.3509 	 48.1640 	 34.7004 	 5.6954 	 3.5700
  0.3600 	 1.3700 	 9.1604 	 11.0297 	 2.0539 	 53.9038 	 2.3448 	 48.3660 	 33.4068 	 5.5378 	 3.5700
  0.3600 	 1.3800 	 9.1704 	 11.0237 	 2.0428 	 53.9366 	 2.3389 	 48.5660 	 32.0814 	 5.3706 	 3.5700
  0.3600 	 1.3900 	 9.1803 	 11.0177 	 2.0319 	 53.9568 	 2.3331 	 48.7642 	 30.7194 	 5.1927 	 3.5700
  0.3600 	 1.3200 	 9.1037 	 11.0796 	 2.1160 	 53.5155 	 2.3809 	 47.2899 	 39.5998 	 6.2257 	 3.5800
  0.3600 	 1.3300 	 9.1146 	 11.0730 	 2.1041 	 53.6002 	 2.3743 	 47.4998 	 38.3990 	 6.1004 	 3.5800
  0.3600 	 1.3400 	 9.1253 	 11.0665 	 2.0924 	 53.6756 	 2.3679 	 47.7077 	 37.1784 	 5.9678 	 3.5800
  0.3600 	 1.3500 	 9.1358 	 11.0601 	 2.0808 	 53.7412 	 2.3616 	 47.9137 	 35.9356 	 5.8275 	 3.5800
  0.3600 	 1.3600 	 9.1462 	 11.0538 	 2.0694 	 53.7965 	 2.3554 	 48.1176 	 34.6678 	 5.6788 	 3.5800
  0.3600 	 1.3700 	 9.1565 	 11.0476 	 2.0582 	 53.8408 	 2.3493 	 48.3197 	 33.3717 	 5.5211 	 3.5800
  0.3600 	 1.3800 	 9.1666 	 11.0415 	 2.0471 	 53.8736 	 2.3433 	 48.5198 	 32.0434 	 5.3537 	 3.5800
  0.3600 	 1.3900 	 9.1765 	 11.0355 	 2.0361 	 53.8937 	 2.3375 	 48.7181 	 30.6784 	 5.1756 	 3.5800
  0.3600 	 1.3200 	 9.0997 	 11.0976 	 2.1204 	 53.4528 	 2.3855 	 47.2433 	 39.5759 	 6.2095 	 3.5900
  0.3600 	 1.3300 	 9.1106 	 11.0910 	 2.1085 	 53.5375 	 2.3789 	 47.4533 	 38.3732 	 6.0842 	 3.5900
  0.3600 	 1.3400 	 9.1213 	 11.0844 	 2.0968 	 53.6128 	 2.3724 	 47.6613 	 37.1505 	 5.9516 	 3.5900
  0.3600 	 1.3500 	 9.1319 	 11.0780 	 2.0852 	 53.6784 	 2.3660 	 47.8673 	 35.9055 	 5.8111 	 3.5900
  0.3600 	 1.3600 	 9.1423 	 11.0716 	 2.0737 	 53.7337 	 2.3598 	 48.0714 	 34.6353 	 5.6623 	 3.5900
  0.3600 	 1.3700 	 9.1526 	 11.0654 	 2.0625 	 53.7781 	 2.3537 	 48.2735 	 33.3366 	 5.5045 	 3.5900
  0.3600 	 1.3800 	 9.1627 	 11.0593 	 2.0513 	 53.8107 	 2.3477 	 48.4738 	 32.0055 	 5.3369 	 3.5900
  0.3600 	 1.3900 	 9.1727 	 11.0532 	 2.0404 	 53.8307 	 2.3419 	 48.6721 	 30.6374 	 5.1586 	 3.5900
  0.3600 	 1.3200 	 9.0957 	 11.1156 	 2.1249 	 53.3902 	 2.3900 	 47.1968 	 39.5521 	 6.1934 	 3.6000
  0.3600 	 1.3300 	 9.1066 	 11.1089 	 2.1129 	 53.4749 	 2.3834 	 47.4069 	 38.3474 	 6.0681 	 3.6000
  0.3600 	 1.3400 	 9.1173 	 11.1023 	 2.1011 	 53.5503 	 2.3769 	 47.6150 	 37.1227 	 5.9353 	 3.6000
  0.3600 	 1.3500 	 9.1279 	 11.0958 	 2.0895 	 53.6159 	 2.3705 	 47.8211 	 35.8754 	 5.7948 	 3.6000
  0.3600 	 1.3600 	 9.1384 	 11.0895 	 2.0780 	 53.6712 	 2.3643 	 48.0252 	 34.6028 	 5.6459 	 3.6000
  0.3600 	 1.3700 	 9.1487 	 11.0832 	 2.0667 	 53.7154 	 2.3581 	 48.2275 	 33.3016 	 5.4880 	 3.6000
  0.3600 	 1.3800 	 9.1588 	 11.0771 	 2.0556 	 53.7480 	 2.3521 	 48.4278 	 31.9676 	 5.3202 	 3.6000
  0.3600 	 1.3900 	 9.1688 	 11.0710 	 2.0446 	 53.7679 	 2.3462 	 48.6262 	 30.5964 	 5.1417 	 3.6000
