# d(e,e'p)n Central Kinematics Summary
# Beam Energy (Ei) = 11.000 GeV
# 4-Momentum Transfer (Q2) = 2.90 - 2.99 GeV (step: 0.01) 
# x-Bjorken (xbj) = 1.00 - 2.00 (step: 0.01) 
# Missing Momentum (Pr) = 0.35 - 0.37 GeV (step: 0.01) 
# Hadron Out-of-Plane Angle (phi): rotation axis is q-vector 
# thp = thq + thpq, phi = 180  (q-vector scatters at smaller  angles than proton scattering angle)# 
# # 
# Tensor Polarized Deuterium: d(e,e'p) kinematics :
# 
# Header Definitions: 
# Pr   : Central Missing Momentum [GeV/c] 
# xbj  : Bjorken x  
# kf   : e- final momentum [GeV/c] 
# th_e : e- scattering angle [deg] 
# Pf   : final proton momentum [GeV/c] 
# th_p : proton scattering angle [deg] 
# q    : 3-momentum transfer [GeV] 
# th_q : relative angle between q-vector and +z (lab)  [deg] 
# th_nq: relative angle between q-vector and recoil neutron [deg] 
# th_pq: relative angle between q-vector and knocked-out proton [deg] 
# Q2   : 4-Momentum Transfer [GeV^2]  
# 
#! Pr[f,0]/ 	  xbj[f,1]/ 	 kf[f,2]/ 	 th_e[f,3]/ 	 Pf[f,4]/ 	 th_p[f,5]/ 	 q[f,6]/ 	 th_q[f,7]/ 	 th_nq[f,8]/ 	 th_pq[f,9]/ 	 Q2[f,10]/
  0.3500 	 1.3650 	 9.8678 	 9.3756 	 1.7721 	 58.4229 	 2.0449 	 51.8226 	 35.5888 	 6.6004 	 2.9000
  0.3500 	 1.3700 	 9.8720 	 9.3736 	 1.7674 	 58.4414 	 2.0427 	 51.9195 	 34.9982 	 6.5218 	 2.9000
  0.3500 	 1.3750 	 9.8761 	 9.3717 	 1.7627 	 58.4572 	 2.0404 	 52.0160 	 34.4022 	 6.4412 	 2.9000
  0.3500 	 1.3800 	 9.8801 	 9.3697 	 1.7581 	 58.4703 	 2.0382 	 52.1120 	 33.8002 	 6.3583 	 2.9000
  0.3500 	 1.3850 	 9.8842 	 9.3678 	 1.7535 	 58.4807 	 2.0359 	 52.2076 	 33.1920 	 6.2731 	 2.9000
  0.3500 	 1.3900 	 9.8882 	 9.3659 	 1.7490 	 58.4882 	 2.0337 	 52.3026 	 32.5771 	 6.1856 	 2.9000
  0.3500 	 1.3950 	 9.8922 	 9.3640 	 1.7445 	 58.4927 	 2.0316 	 52.3971 	 31.9552 	 6.0956 	 2.9000
  0.3500 	 1.4000 	 9.8961 	 9.3621 	 1.7400 	 58.4942 	 2.0294 	 52.4912 	 31.3257 	 6.0030 	 2.9000
  0.3500 	 1.4050 	 9.9001 	 9.3603 	 1.7355 	 58.4925 	 2.0273 	 52.5848 	 30.6881 	 5.9077 	 2.9000
  0.3500 	 1.4100 	 9.9040 	 9.3584 	 1.7311 	 58.4875 	 2.0252 	 52.6780 	 30.0419 	 5.8095 	 2.9000
  0.3500 	 1.4150 	 9.9078 	 9.3566 	 1.7267 	 58.4791 	 2.0231 	 52.7706 	 29.3865 	 5.7084 	 2.9000
  0.3500 	 1.4200 	 9.9117 	 9.3548 	 1.7223 	 58.4670 	 2.0210 	 52.8628 	 28.7210 	 5.6042 	 2.9000
  0.3500 	 1.4250 	 9.9155 	 9.3530 	 1.7179 	 58.4512 	 2.0189 	 52.9546 	 28.0449 	 5.4967 	 2.9000
  0.3500 	 1.4300 	 9.9193 	 9.3512 	 1.7136 	 58.4315 	 2.0169 	 53.0459 	 27.3572 	 5.3856 	 2.9000
  0.3500 	 1.4350 	 9.9231 	 9.3494 	 1.7093 	 58.4076 	 2.0149 	 53.1367 	 26.6570 	 5.2709 	 2.9000
  0.3500 	 1.4400 	 9.9268 	 9.3476 	 1.7051 	 58.3793 	 2.0129 	 53.2271 	 25.9432 	 5.1522 	 2.9000
  0.3500 	 1.4450 	 9.9305 	 9.3459 	 1.7008 	 58.3464 	 2.0109 	 53.3170 	 25.2146 	 5.0294 	 2.9000
  0.3500 	 1.4500 	 9.9342 	 9.3442 	 1.6966 	 58.3084 	 2.0090 	 53.4065 	 24.4699 	 4.9019 	 2.9000
  0.3500 	 1.4550 	 9.9379 	 9.3424 	 1.6924 	 58.2651 	 2.0070 	 53.4955 	 23.7074 	 4.7696 	 2.9000
  0.3500 	 1.4600 	 9.9415 	 9.3407 	 1.6883 	 58.2161 	 2.0051 	 53.5841 	 22.9253 	 4.6320 	 2.9000
  0.3500 	 1.4650 	 9.9451 	 9.3390 	 1.6841 	 58.1609 	 2.0032 	 53.6723 	 22.1215 	 4.4886 	 2.9000
  0.3500 	 1.4700 	 9.9487 	 9.3373 	 1.6800 	 58.0989 	 2.0013 	 53.7600 	 21.2935 	 4.3388 	 2.9000
  0.3500 	 1.4750 	 9.9523 	 9.3357 	 1.6759 	 58.0294 	 1.9994 	 53.8473 	 20.4382 	 4.1821 	 2.9000
  0.3500 	 1.4800 	 9.9558 	 9.3340 	 1.6719 	 57.9516 	 1.9976 	 53.9342 	 19.5520 	 4.0175 	 2.9000
  0.3500 	 1.4850 	 9.9593 	 9.3323 	 1.6678 	 57.8646 	 1.9957 	 54.0206 	 18.6305 	 3.8440 	 2.9000
  0.3500 	 1.4900 	 9.9628 	 9.3307 	 1.6638 	 57.7671 	 1.9939 	 54.1066 	 17.6679 	 3.6605 	 2.9000
  0.3500 	 1.4950 	 9.9663 	 9.3291 	 1.6598 	 57.6575 	 1.9921 	 54.1922 	 16.6573 	 3.4652 	 2.9000
  0.3500 	 1.5000 	 9.9697 	 9.3275 	 1.6559 	 57.5337 	 1.9903 	 54.2774 	 15.5890 	 3.2563 	 2.9000
  0.3500 	 1.5050 	 9.9732 	 9.3258 	 1.6520 	 57.3928 	 1.9886 	 54.3622 	 14.4503 	 3.0307 	 2.9000
  0.3500 	 1.5100 	 9.9766 	 9.3243 	 1.6480 	 57.2309 	 1.9868 	 54.4465 	 13.2229 	 2.7844 	 2.9000
  0.3500 	 1.5150 	 9.9799 	 9.3227 	 1.6442 	 57.0420 	 1.9851 	 54.5305 	 11.8792 	 2.5115 	 2.9000
  0.3500 	 1.5200 	 9.9833 	 9.3211 	 1.6403 	 56.8160 	 1.9834 	 54.6140 	 10.3740 	 2.2020 	 2.9000
  0.3500 	 1.5250 	 9.9866 	 9.3195 	 1.6364 	 56.5348 	 1.9816 	 54.6971 	 8.6230 	 1.8376 	 2.9000
  0.3500 	 1.5300 	 9.9899 	 9.3180 	 1.6326 	 56.1552 	 1.9800 	 54.7798 	 6.4284 	 1.3753 	 2.9000
  0.3500 	 1.3650 	 9.8639 	 9.3936 	 1.7765 	 58.3464 	 2.0495 	 51.7688 	 35.5502 	 6.5777 	 2.9100
  0.3500 	 1.3700 	 9.8681 	 9.3917 	 1.7718 	 58.3649 	 2.0472 	 51.8658 	 34.9582 	 6.4990 	 2.9100
  0.3500 	 1.3750 	 9.8722 	 9.3897 	 1.7671 	 58.3807 	 2.0450 	 51.9624 	 34.3606 	 6.4183 	 2.9100
  0.3500 	 1.3800 	 9.8763 	 9.3878 	 1.7625 	 58.3937 	 2.0427 	 52.0584 	 33.7571 	 6.3353 	 2.9100
  0.3500 	 1.3850 	 9.8803 	 9.3858 	 1.7579 	 58.4040 	 2.0405 	 52.1540 	 33.1473 	 6.2500 	 2.9100
  0.3500 	 1.3900 	 9.8844 	 9.3839 	 1.7533 	 58.4115 	 2.0383 	 52.2491 	 32.5308 	 6.1623 	 2.9100
  0.3500 	 1.3950 	 9.8884 	 9.3820 	 1.7488 	 58.4159 	 2.0361 	 52.3438 	 31.9071 	 6.0722 	 2.9100
  0.3500 	 1.4000 	 9.8923 	 9.3801 	 1.7443 	 58.4173 	 2.0339 	 52.4379 	 31.2758 	 5.9794 	 2.9100
  0.3500 	 1.4050 	 9.8963 	 9.3782 	 1.7398 	 58.4155 	 2.0318 	 52.5316 	 30.6364 	 5.8840 	 2.9100
  0.3500 	 1.4100 	 9.9002 	 9.3764 	 1.7354 	 58.4104 	 2.0297 	 52.6248 	 29.9882 	 5.7857 	 2.9100
  0.3500 	 1.4150 	 9.9041 	 9.3745 	 1.7309 	 58.4019 	 2.0276 	 52.7175 	 29.3306 	 5.6844 	 2.9100
  0.3500 	 1.4200 	 9.9079 	 9.3727 	 1.7266 	 58.3897 	 2.0255 	 52.8098 	 28.6630 	 5.5799 	 2.9100
  0.3500 	 1.4250 	 9.9118 	 9.3709 	 1.7222 	 58.3737 	 2.0234 	 52.9016 	 27.9845 	 5.4721 	 2.9100
  0.3500 	 1.4300 	 9.9156 	 9.3691 	 1.7179 	 58.3538 	 2.0214 	 52.9930 	 27.2944 	 5.3609 	 2.9100
  0.3500 	 1.4350 	 9.9194 	 9.3673 	 1.7136 	 58.3297 	 2.0194 	 53.0839 	 26.5916 	 5.2459 	 2.9100
  0.3500 	 1.4400 	 9.9231 	 9.3655 	 1.7093 	 58.3012 	 2.0173 	 53.1743 	 25.8750 	 5.1269 	 2.9100
  0.3500 	 1.4450 	 9.9268 	 9.3638 	 1.7050 	 58.2679 	 2.0154 	 53.2643 	 25.1435 	 5.0036 	 2.9100
  0.3500 	 1.4500 	 9.9305 	 9.3620 	 1.7008 	 58.2297 	 2.0134 	 53.3538 	 24.3955 	 4.8758 	 2.9100
  0.3500 	 1.4550 	 9.9342 	 9.3603 	 1.6966 	 58.1860 	 2.0114 	 53.4430 	 23.6296 	 4.7431 	 2.9100
  0.3500 	 1.4600 	 9.9379 	 9.3586 	 1.6924 	 58.1366 	 2.0095 	 53.5316 	 22.8438 	 4.6050 	 2.9100
  0.3500 	 1.4650 	 9.9415 	 9.3569 	 1.6883 	 58.0809 	 2.0076 	 53.6199 	 22.0359 	 4.4610 	 2.9100
  0.3500 	 1.4700 	 9.9451 	 9.3552 	 1.6842 	 58.0183 	 2.0057 	 53.7077 	 21.2033 	 4.3106 	 2.9100
  0.3500 	 1.4750 	 9.9487 	 9.3535 	 1.6801 	 57.9481 	 2.0038 	 53.7950 	 20.3431 	 4.1531 	 2.9100
  0.3500 	 1.4800 	 9.9522 	 9.3518 	 1.6760 	 57.8696 	 2.0020 	 53.8820 	 19.4513 	 3.9877 	 2.9100
  0.3500 	 1.4850 	 9.9557 	 9.3501 	 1.6720 	 57.7817 	 2.0001 	 53.9685 	 18.5235 	 3.8133 	 2.9100
  0.3500 	 1.4900 	 9.9592 	 9.3485 	 1.6679 	 57.6831 	 1.9983 	 54.0546 	 17.5538 	 3.6286 	 2.9100
  0.3500 	 1.4950 	 9.9627 	 9.3469 	 1.6639 	 57.5722 	 1.9965 	 54.1402 	 16.5347 	 3.4320 	 2.9100
  0.3500 	 1.5000 	 9.9662 	 9.3452 	 1.6600 	 57.4467 	 1.9947 	 54.2255 	 15.4564 	 3.2213 	 2.9100
  0.3500 	 1.5050 	 9.9696 	 9.3436 	 1.6560 	 57.3038 	 1.9929 	 54.3103 	 14.3055 	 2.9935 	 2.9100
  0.3500 	 1.5100 	 9.9730 	 9.3420 	 1.6521 	 57.1392 	 1.9911 	 54.3947 	 13.0628 	 2.7445 	 2.9100
  0.3500 	 1.5150 	 9.9764 	 9.3404 	 1.6482 	 56.9465 	 1.9894 	 54.4787 	 11.6987 	 2.4678 	 2.9100
  0.3500 	 1.5200 	 9.9798 	 9.3388 	 1.6443 	 56.7151 	 1.9877 	 54.5623 	 10.1646 	 2.1527 	 2.9100
  0.3500 	 1.5250 	 9.9831 	 9.3373 	 1.6405 	 56.4246 	 1.9860 	 54.6455 	 8.3672 	 1.7791 	 2.9100
  0.3500 	 1.5300 	 9.9865 	 9.3357 	 1.6366 	 56.0256 	 1.9843 	 54.7283 	 6.0771 	 1.2973 	 2.9100
  0.3500 	 1.3650 	 9.8600 	 9.4117 	 1.7809 	 58.2702 	 2.0541 	 51.7151 	 35.5116 	 6.5551 	 2.9200
  0.3500 	 1.3700 	 9.8642 	 9.4097 	 1.7762 	 58.2886 	 2.0518 	 51.8122 	 34.9182 	 6.4764 	 2.9200
  0.3500 	 1.3750 	 9.8683 	 9.4077 	 1.7715 	 58.3044 	 2.0496 	 51.9088 	 34.3191 	 6.3955 	 2.9200
  0.3500 	 1.3800 	 9.8724 	 9.4058 	 1.7669 	 58.3174 	 2.0473 	 52.0050 	 33.7141 	 6.3124 	 2.9200
  0.3500 	 1.3850 	 9.8765 	 9.4038 	 1.7623 	 58.3277 	 2.0451 	 52.1006 	 33.1027 	 6.2270 	 2.9200
  0.3500 	 1.3900 	 9.8805 	 9.4019 	 1.7577 	 58.3350 	 2.0428 	 52.1958 	 32.4845 	 6.1392 	 2.9200
  0.3500 	 1.3950 	 9.8846 	 9.4000 	 1.7531 	 58.3394 	 2.0406 	 52.2905 	 31.8591 	 6.0489 	 2.9200
  0.3500 	 1.4000 	 9.8885 	 9.3981 	 1.7486 	 58.3407 	 2.0385 	 52.3847 	 31.2260 	 5.9560 	 2.9200
  0.3500 	 1.4050 	 9.8925 	 9.3962 	 1.7441 	 58.3388 	 2.0363 	 52.4785 	 30.5846 	 5.8604 	 2.9200
  0.3500 	 1.4100 	 9.8964 	 9.3943 	 1.7397 	 58.3336 	 2.0342 	 52.5717 	 29.9344 	 5.7619 	 2.9200
  0.3500 	 1.4150 	 9.9003 	 9.3925 	 1.7352 	 58.3249 	 2.0321 	 52.6645 	 29.2748 	 5.6604 	 2.9200
  0.3500 	 1.4200 	 9.9042 	 9.3906 	 1.7308 	 58.3126 	 2.0300 	 52.7569 	 28.6050 	 5.5558 	 2.9200
  0.3500 	 1.4250 	 9.9080 	 9.3888 	 1.7265 	 58.2965 	 2.0279 	 52.8487 	 27.9242 	 5.4478 	 2.9200
  0.3500 	 1.4300 	 9.9119 	 9.3870 	 1.7221 	 58.2764 	 2.0258 	 52.9402 	 27.2316 	 5.3362 	 2.9200
  0.3500 	 1.4350 	 9.9156 	 9.3852 	 1.7178 	 58.2521 	 2.0238 	 53.0311 	 26.5261 	 5.2209 	 2.9200
  0.3500 	 1.4400 	 9.9194 	 9.3834 	 1.7135 	 58.2233 	 2.0218 	 53.1217 	 25.8068 	 5.1016 	 2.9200
  0.3500 	 1.4450 	 9.9231 	 9.3816 	 1.7092 	 58.1897 	 2.0198 	 53.2117 	 25.0722 	 4.9780 	 2.9200
  0.3500 	 1.4500 	 9.9269 	 9.3799 	 1.7050 	 58.1512 	 2.0178 	 53.3013 	 24.3211 	 4.8498 	 2.9200
  0.3500 	 1.4550 	 9.9305 	 9.3781 	 1.7008 	 58.1071 	 2.0159 	 53.3905 	 23.5517 	 4.7166 	 2.9200
  0.3500 	 1.4600 	 9.9342 	 9.3764 	 1.6966 	 58.0573 	 2.0139 	 53.4793 	 22.7621 	 4.5780 	 2.9200
  0.3500 	 1.4650 	 9.9378 	 9.3747 	 1.6924 	 58.0011 	 2.0120 	 53.5676 	 21.9501 	 4.4335 	 2.9200
  0.3500 	 1.4700 	 9.9415 	 9.3730 	 1.6883 	 57.9379 	 2.0101 	 53.6554 	 21.1130 	 4.2825 	 2.9200
  0.3500 	 1.4750 	 9.9450 	 9.3713 	 1.6842 	 57.8671 	 2.0082 	 53.7429 	 20.2477 	 4.1243 	 2.9200
  0.3500 	 1.4800 	 9.9486 	 9.3696 	 1.6801 	 57.7878 	 2.0063 	 53.8299 	 19.3504 	 3.9580 	 2.9200
  0.3500 	 1.4850 	 9.9522 	 9.3679 	 1.6761 	 57.6990 	 2.0045 	 53.9164 	 18.4161 	 3.7826 	 2.9200
  0.3500 	 1.4900 	 9.9557 	 9.3663 	 1.6720 	 57.5993 	 2.0027 	 54.0026 	 17.4391 	 3.5967 	 2.9200
  0.3500 	 1.4950 	 9.9592 	 9.3646 	 1.6680 	 57.4870 	 2.0008 	 54.0883 	 16.4114 	 3.3987 	 2.9200
  0.3500 	 1.5000 	 9.9626 	 9.3630 	 1.6640 	 57.3599 	 1.9990 	 54.1736 	 15.3230 	 3.1863 	 2.9200
  0.3500 	 1.5050 	 9.9661 	 9.3614 	 1.6601 	 57.2149 	 1.9972 	 54.2585 	 14.1596 	 2.9563 	 2.9200
  0.3500 	 1.5100 	 9.9695 	 9.3597 	 1.6562 	 57.0475 	 1.9955 	 54.3430 	 12.9010 	 2.7044 	 2.9200
  0.3500 	 1.5150 	 9.9729 	 9.3581 	 1.6522 	 56.8509 	 1.9937 	 54.4271 	 11.5158 	 2.4238 	 2.9200
  0.3500 	 1.5200 	 9.9763 	 9.3566 	 1.6484 	 56.6136 	 1.9920 	 54.5108 	 9.9512 	 2.1028 	 2.9200
  0.3500 	 1.5250 	 9.9796 	 9.3550 	 1.6445 	 56.3133 	 1.9903 	 54.5940 	 8.1038 	 1.7193 	 2.9200
  0.3500 	 1.5300 	 9.9830 	 9.3534 	 1.6407 	 55.8920 	 1.9886 	 54.6769 	 5.7050 	 1.2151 	 2.9200
  0.3500 	 1.3650 	 9.8561 	 9.4297 	 1.7853 	 58.1942 	 2.0587 	 51.6616 	 35.4730 	 6.5326 	 2.9300
  0.3500 	 1.3700 	 9.8603 	 9.4277 	 1.7806 	 58.2126 	 2.0564 	 51.7588 	 34.8782 	 6.4538 	 2.9300
  0.3500 	 1.3750 	 9.8645 	 9.4257 	 1.7759 	 58.2283 	 2.0541 	 51.8555 	 34.2776 	 6.3729 	 2.9300
  0.3500 	 1.3800 	 9.8686 	 9.4237 	 1.7712 	 58.2413 	 2.0519 	 51.9517 	 33.6711 	 6.2897 	 2.9300
  0.3500 	 1.3850 	 9.8726 	 9.4218 	 1.7666 	 58.2515 	 2.0496 	 52.0474 	 33.0581 	 6.2041 	 2.9300
  0.3500 	 1.3900 	 9.8767 	 9.4198 	 1.7620 	 58.2588 	 2.0474 	 52.1426 	 32.4382 	 6.1162 	 2.9300
  0.3500 	 1.3950 	 9.8807 	 9.4179 	 1.7575 	 58.2632 	 2.0452 	 52.2374 	 31.8111 	 6.0258 	 2.9300
  0.3500 	 1.4000 	 9.8847 	 9.4160 	 1.7529 	 58.2644 	 2.0430 	 52.3317 	 31.1761 	 5.9327 	 2.9300
  0.3500 	 1.4050 	 9.8887 	 9.4141 	 1.7484 	 58.2624 	 2.0408 	 52.4255 	 30.5329 	 5.8369 	 2.9300
  0.3500 	 1.4100 	 9.8926 	 9.4122 	 1.7440 	 58.2571 	 2.0387 	 52.5188 	 29.8807 	 5.7383 	 2.9300
  0.3500 	 1.4150 	 9.8966 	 9.4104 	 1.7395 	 58.2483 	 2.0366 	 52.6117 	 29.2189 	 5.6366 	 2.9300
  0.3500 	 1.4200 	 9.9004 	 9.4085 	 1.7351 	 58.2358 	 2.0345 	 52.7041 	 28.5469 	 5.5317 	 2.9300
  0.3500 	 1.4250 	 9.9043 	 9.4067 	 1.7307 	 58.2195 	 2.0324 	 52.7960 	 27.8638 	 5.4235 	 2.9300
  0.3500 	 1.4300 	 9.9081 	 9.4049 	 1.7263 	 58.1992 	 2.0303 	 52.8875 	 27.1687 	 5.3117 	 2.9300
  0.3500 	 1.4350 	 9.9119 	 9.4030 	 1.7220 	 58.1747 	 2.0283 	 52.9786 	 26.4607 	 5.1961 	 2.9300
  0.3500 	 1.4400 	 9.9157 	 9.4012 	 1.7177 	 58.1456 	 2.0263 	 53.0691 	 25.7385 	 5.0765 	 2.9300
  0.3500 	 1.4450 	 9.9195 	 9.3995 	 1.7134 	 58.1118 	 2.0242 	 53.1593 	 25.0010 	 4.9525 	 2.9300
  0.3500 	 1.4500 	 9.9232 	 9.3977 	 1.7092 	 58.0729 	 2.0223 	 53.2490 	 24.2466 	 4.8239 	 2.9300
  0.3500 	 1.4550 	 9.9269 	 9.3959 	 1.7050 	 58.0285 	 2.0203 	 53.3382 	 23.4737 	 4.6903 	 2.9300
  0.3500 	 1.4600 	 9.9306 	 9.3942 	 1.7008 	 57.9782 	 2.0183 	 53.4270 	 22.6803 	 4.5512 	 2.9300
  0.3500 	 1.4650 	 9.9342 	 9.3925 	 1.6966 	 57.9215 	 2.0164 	 53.5154 	 21.8642 	 4.4061 	 2.9300
  0.3500 	 1.4700 	 9.9378 	 9.3908 	 1.6925 	 57.8578 	 2.0145 	 53.6033 	 21.0225 	 4.2545 	 2.9300
  0.3500 	 1.4750 	 9.9414 	 9.3890 	 1.6883 	 57.7863 	 2.0126 	 53.6908 	 20.1522 	 4.0955 	 2.9300
  0.3500 	 1.4800 	 9.9450 	 9.3874 	 1.6842 	 57.7063 	 2.0107 	 53.7779 	 19.2491 	 3.9284 	 2.9300
  0.3500 	 1.4850 	 9.9486 	 9.3857 	 1.6802 	 57.6165 	 2.0089 	 53.8645 	 18.3084 	 3.7520 	 2.9300
  0.3500 	 1.4900 	 9.9521 	 9.3840 	 1.6761 	 57.5157 	 2.0070 	 53.9508 	 17.3239 	 3.5649 	 2.9300
  0.3500 	 1.4950 	 9.9556 	 9.3824 	 1.6721 	 57.4020 	 2.0052 	 54.0366 	 16.2875 	 3.3654 	 2.9300
  0.3500 	 1.5000 	 9.9591 	 9.3807 	 1.6681 	 57.2732 	 2.0034 	 54.1220 	 15.1887 	 3.1512 	 2.9300
  0.3500 	 1.5050 	 9.9625 	 9.3791 	 1.6642 	 57.1260 	 2.0016 	 54.2069 	 14.0125 	 2.9190 	 2.9300
  0.3500 	 1.5100 	 9.9660 	 9.3775 	 1.6602 	 56.9557 	 1.9998 	 54.2915 	 12.7375 	 2.6642 	 2.9300
  0.3500 	 1.5150 	 9.9694 	 9.3758 	 1.6563 	 56.7550 	 1.9980 	 54.3756 	 11.3303 	 2.3794 	 2.9300
  0.3500 	 1.5200 	 9.9728 	 9.3743 	 1.6524 	 56.5116 	 1.9963 	 54.4594 	 9.7336 	 2.0522 	 2.9300
  0.3500 	 1.5250 	 9.9761 	 9.3727 	 1.6485 	 56.2006 	 1.9946 	 54.5427 	 7.8322 	 1.6579 	 2.9300
  0.3500 	 1.5300 	 9.9795 	 9.3711 	 1.6447 	 55.7537 	 1.9928 	 54.6256 	 5.3079 	 1.1280 	 2.9300
  0.3500 	 1.3650 	 9.8522 	 9.4477 	 1.7897 	 58.1185 	 2.0633 	 51.6082 	 35.4345 	 6.5103 	 2.9400
  0.3500 	 1.3700 	 9.8564 	 9.4457 	 1.7850 	 58.1368 	 2.0610 	 51.7054 	 34.8382 	 6.4314 	 2.9400
  0.3500 	 1.3750 	 9.8606 	 9.4437 	 1.7803 	 58.1525 	 2.0587 	 51.8022 	 34.2362 	 6.3503 	 2.9400
  0.3500 	 1.3800 	 9.8647 	 9.4417 	 1.7756 	 58.1655 	 2.0564 	 51.8985 	 33.6281 	 6.2670 	 2.9400
  0.3500 	 1.3850 	 9.8688 	 9.4397 	 1.7710 	 58.1757 	 2.0542 	 51.9943 	 33.0134 	 6.1814 	 2.9400
  0.3500 	 1.3900 	 9.8729 	 9.4378 	 1.7664 	 58.1829 	 2.0519 	 52.0896 	 32.3919 	 6.0933 	 2.9400
  0.3500 	 1.3950 	 9.8769 	 9.4358 	 1.7618 	 58.1872 	 2.0497 	 52.1844 	 31.7630 	 6.0028 	 2.9400
  0.3500 	 1.4000 	 9.8809 	 9.4339 	 1.7572 	 58.1883 	 2.0475 	 52.2787 	 31.1263 	 5.9096 	 2.9400
  0.3500 	 1.4050 	 9.8849 	 9.4320 	 1.7527 	 58.1862 	 2.0453 	 52.3726 	 30.4811 	 5.8136 	 2.9400
  0.3500 	 1.4100 	 9.8889 	 9.4301 	 1.7482 	 58.1808 	 2.0432 	 52.4660 	 29.8269 	 5.7148 	 2.9400
  0.3500 	 1.4150 	 9.8928 	 9.4282 	 1.7438 	 58.1718 	 2.0411 	 52.5590 	 29.1631 	 5.6129 	 2.9400
  0.3500 	 1.4200 	 9.8967 	 9.4264 	 1.7394 	 58.1592 	 2.0389 	 52.6514 	 28.4889 	 5.5078 	 2.9400
  0.3500 	 1.4250 	 9.9006 	 9.4245 	 1.7350 	 58.1428 	 2.0369 	 52.7434 	 27.8034 	 5.3993 	 2.9400
  0.3500 	 1.4300 	 9.9044 	 9.4227 	 1.7306 	 58.1223 	 2.0348 	 52.8350 	 27.1059 	 5.2873 	 2.9400
  0.3500 	 1.4350 	 9.9082 	 9.4209 	 1.7262 	 58.0975 	 2.0327 	 52.9261 	 26.3952 	 5.1714 	 2.9400
  0.3500 	 1.4400 	 9.9120 	 9.4191 	 1.7219 	 58.0682 	 2.0307 	 53.0168 	 25.6702 	 5.0515 	 2.9400
  0.3500 	 1.4450 	 9.9158 	 9.4173 	 1.7176 	 58.0341 	 2.0287 	 53.1070 	 24.9296 	 4.9272 	 2.9400
  0.3500 	 1.4500 	 9.9195 	 9.4155 	 1.7134 	 57.9949 	 2.0267 	 53.1967 	 24.1720 	 4.7982 	 2.9400
  0.3500 	 1.4550 	 9.9232 	 9.4137 	 1.7091 	 57.9501 	 2.0247 	 53.2860 	 23.3956 	 4.6641 	 2.9400
  0.3500 	 1.4600 	 9.9269 	 9.4120 	 1.7049 	 57.8994 	 2.0228 	 53.3749 	 22.5984 	 4.5245 	 2.9400
  0.3500 	 1.4650 	 9.9306 	 9.4102 	 1.7008 	 57.8422 	 2.0208 	 53.4633 	 21.7781 	 4.3788 	 2.9400
  0.3500 	 1.4700 	 9.9342 	 9.4085 	 1.6966 	 57.7779 	 2.0189 	 53.5513 	 20.9318 	 4.2265 	 2.9400
  0.3500 	 1.4750 	 9.9378 	 9.4068 	 1.6925 	 57.7058 	 2.0170 	 53.6389 	 20.0563 	 4.0668 	 2.9400
  0.3500 	 1.4800 	 9.9414 	 9.4051 	 1.6884 	 57.6249 	 2.0151 	 53.7261 	 19.1475 	 3.8988 	 2.9400
  0.3500 	 1.4850 	 9.9450 	 9.4034 	 1.6843 	 57.5342 	 2.0132 	 53.8128 	 18.2002 	 3.7214 	 2.9400
  0.3500 	 1.4900 	 9.9485 	 9.4017 	 1.6802 	 57.4322 	 2.0114 	 53.8991 	 17.2082 	 3.5331 	 2.9400
  0.3500 	 1.4950 	 9.9520 	 9.4001 	 1.6762 	 57.3171 	 2.0095 	 53.9849 	 16.1629 	 3.3322 	 2.9400
  0.3500 	 1.5000 	 9.9555 	 9.3984 	 1.6722 	 57.1866 	 2.0077 	 54.0704 	 15.0534 	 3.1162 	 2.9400
  0.3500 	 1.5050 	 9.9590 	 9.3968 	 1.6682 	 57.0371 	 2.0059 	 54.1554 	 13.8641 	 2.8817 	 2.9400
  0.3500 	 1.5100 	 9.9624 	 9.3951 	 1.6643 	 56.8638 	 2.0041 	 54.2401 	 12.5723 	 2.6237 	 2.9400
  0.3500 	 1.5150 	 9.9659 	 9.3935 	 1.6603 	 56.6589 	 2.0024 	 54.3243 	 11.1421 	 2.3346 	 2.9400
  0.3500 	 1.5200 	 9.9693 	 9.3919 	 1.6564 	 56.4090 	 2.0006 	 54.4081 	 9.5115 	 2.0010 	 2.9400
  0.3500 	 1.5250 	 9.9726 	 9.3903 	 1.6525 	 56.0864 	 1.9989 	 54.4915 	 7.5514 	 1.5949 	 2.9400
  0.3500 	 1.3600 	 9.8441 	 9.4677 	 1.7989 	 58.0221 	 2.0703 	 51.4571 	 35.9882 	 6.5649 	 2.9500
  0.3500 	 1.3650 	 9.8483 	 9.4656 	 1.7941 	 58.0430 	 2.0679 	 51.5550 	 35.3959 	 6.4881 	 2.9500
  0.3500 	 1.3700 	 9.8525 	 9.4636 	 1.7894 	 58.0613 	 2.0656 	 51.6523 	 34.7982 	 6.4091 	 2.9500
  0.3500 	 1.3750 	 9.8567 	 9.4616 	 1.7847 	 58.0770 	 2.0633 	 51.7491 	 34.1947 	 6.3279 	 2.9500
  0.3500 	 1.3800 	 9.8608 	 9.4596 	 1.7800 	 58.0899 	 2.0610 	 51.8454 	 33.5851 	 6.2445 	 2.9500
  0.3500 	 1.3850 	 9.8650 	 9.4576 	 1.7753 	 58.1000 	 2.0587 	 51.9413 	 32.9689 	 6.1588 	 2.9500
  0.3500 	 1.3900 	 9.8690 	 9.4557 	 1.7707 	 58.1072 	 2.0565 	 52.0366 	 32.3457 	 6.0706 	 2.9500
  0.3500 	 1.3950 	 9.8731 	 9.4537 	 1.7661 	 58.1114 	 2.0542 	 52.1315 	 31.7150 	 5.9799 	 2.9500
  0.3500 	 1.4000 	 9.8771 	 9.4518 	 1.7616 	 58.1125 	 2.0520 	 52.2259 	 31.0765 	 5.8865 	 2.9500
  0.3500 	 1.4050 	 9.8811 	 9.4499 	 1.7570 	 58.1103 	 2.0499 	 52.3199 	 30.4294 	 5.7904 	 2.9500
  0.3500 	 1.4100 	 9.8851 	 9.4480 	 1.7525 	 58.1047 	 2.0477 	 52.4134 	 29.7732 	 5.6914 	 2.9500
  0.3500 	 1.4150 	 9.8890 	 9.4461 	 1.7481 	 58.0957 	 2.0456 	 52.5064 	 29.1073 	 5.5893 	 2.9500
  0.3500 	 1.4200 	 9.8929 	 9.4442 	 1.7436 	 58.0829 	 2.0434 	 52.5989 	 28.4308 	 5.4840 	 2.9500
  0.3500 	 1.4250 	 9.8968 	 9.4424 	 1.7392 	 58.0663 	 2.0413 	 52.6910 	 27.7430 	 5.3753 	 2.9500
  0.3500 	 1.4300 	 9.9007 	 9.4405 	 1.7348 	 58.0456 	 2.0392 	 52.7826 	 27.0430 	 5.2630 	 2.9500
  0.3500 	 1.4350 	 9.9045 	 9.4387 	 1.7305 	 58.0206 	 2.0372 	 52.8738 	 26.3296 	 5.1468 	 2.9500
  0.3500 	 1.4400 	 9.9083 	 9.4369 	 1.7261 	 57.9911 	 2.0351 	 52.9645 	 25.6018 	 5.0266 	 2.9500
  0.3500 	 1.4450 	 9.9121 	 9.4351 	 1.7218 	 57.9567 	 2.0331 	 53.0548 	 24.8582 	 4.9019 	 2.9500
  0.3500 	 1.4500 	 9.9158 	 9.4333 	 1.7176 	 57.9171 	 2.0311 	 53.1446 	 24.0973 	 4.7725 	 2.9500
  0.3500 	 1.4550 	 9.9196 	 9.4315 	 1.7133 	 57.8720 	 2.0291 	 53.2340 	 23.3174 	 4.6380 	 2.9500
  0.3500 	 1.4600 	 9.9233 	 9.4298 	 1.7091 	 57.8208 	 2.0272 	 53.3229 	 22.5163 	 4.4979 	 2.9500
  0.3500 	 1.4650 	 9.9269 	 9.4280 	 1.7049 	 57.7631 	 2.0252 	 53.4114 	 21.6918 	 4.3517 	 2.9500
  0.3500 	 1.4700 	 9.9306 	 9.4263 	 1.7007 	 57.6982 	 2.0233 	 53.4995 	 20.8409 	 4.1987 	 2.9500
  0.3500 	 1.4750 	 9.9342 	 9.4245 	 1.6966 	 57.6254 	 2.0214 	 53.5871 	 19.9602 	 4.0382 	 2.9500
  0.3500 	 1.4800 	 9.9378 	 9.4228 	 1.6925 	 57.5437 	 2.0195 	 53.6743 	 19.0455 	 3.8694 	 2.9500
  0.3500 	 1.4850 	 9.9414 	 9.4211 	 1.6884 	 57.4520 	 2.0176 	 53.7611 	 18.0916 	 3.6909 	 2.9500
  0.3500 	 1.4900 	 9.9449 	 9.4194 	 1.6843 	 57.3489 	 2.0157 	 53.8475 	 17.0919 	 3.5014 	 2.9500
  0.3500 	 1.4950 	 9.9485 	 9.4178 	 1.6803 	 57.2324 	 2.0139 	 53.9334 	 16.0376 	 3.2990 	 2.9500
  0.3500 	 1.5000 	 9.9520 	 9.4161 	 1.6763 	 57.1000 	 2.0121 	 54.0189 	 14.9173 	 3.0811 	 2.9500
  0.3500 	 1.5050 	 9.9555 	 9.4145 	 1.6723 	 56.9483 	 2.0102 	 54.1041 	 13.7144 	 2.8442 	 2.9500
  0.3500 	 1.5100 	 9.9589 	 9.4128 	 1.6683 	 56.7719 	 2.0084 	 54.1887 	 12.4052 	 2.5831 	 2.9500
  0.3500 	 1.5150 	 9.9624 	 9.4112 	 1.6644 	 56.5626 	 2.0067 	 54.2730 	 10.9512 	 2.2895 	 2.9500
  0.3500 	 1.5200 	 9.9658 	 9.4096 	 1.6605 	 56.3058 	 2.0049 	 54.3569 	 9.2846 	 1.9489 	 2.9500
  0.3500 	 1.5250 	 9.9692 	 9.4080 	 1.6566 	 55.9705 	 2.0032 	 54.4404 	 7.2604 	 1.5301 	 2.9500
  0.3500 	 1.3600 	 9.8402 	 9.4856 	 1.8033 	 57.9469 	 2.0749 	 51.4040 	 35.9511 	 6.5429 	 2.9600
  0.3500 	 1.3650 	 9.8444 	 9.4836 	 1.7985 	 57.9678 	 2.0725 	 51.5018 	 35.3575 	 6.4660 	 2.9600
  0.3500 	 1.3700 	 9.8486 	 9.4816 	 1.7938 	 57.9861 	 2.0702 	 51.5992 	 34.7583 	 6.3869 	 2.9600
  0.3500 	 1.3750 	 9.8528 	 9.4795 	 1.7890 	 58.0017 	 2.0679 	 51.6961 	 34.1533 	 6.3056 	 2.9600
  0.3500 	 1.3800 	 9.8570 	 9.4775 	 1.7843 	 58.0146 	 2.0655 	 51.7925 	 33.5421 	 6.2221 	 2.9600
  0.3500 	 1.3850 	 9.8611 	 9.4755 	 1.7797 	 58.0247 	 2.0633 	 51.8884 	 32.9243 	 6.1363 	 2.9600
  0.3500 	 1.3900 	 9.8652 	 9.4736 	 1.7750 	 58.0318 	 2.0610 	 51.9839 	 32.2994 	 6.0480 	 2.9600
  0.3500 	 1.3950 	 9.8693 	 9.4716 	 1.7704 	 58.0359 	 2.0588 	 52.0788 	 31.6671 	 5.9571 	 2.9600
  0.3500 	 1.4000 	 9.8733 	 9.4697 	 1.7659 	 58.0369 	 2.0566 	 52.1733 	 31.0267 	 5.8636 	 2.9600
  0.3500 	 1.4050 	 9.8773 	 9.4678 	 1.7613 	 58.0346 	 2.0544 	 52.2673 	 30.3777 	 5.7673 	 2.9600
  0.3500 	 1.4100 	 9.8813 	 9.4658 	 1.7568 	 58.0289 	 2.0522 	 52.3608 	 29.7195 	 5.6681 	 2.9600
  0.3500 	 1.4150 	 9.8853 	 9.4639 	 1.7523 	 58.0197 	 2.0500 	 52.4539 	 29.0514 	 5.5658 	 2.9600
  0.3500 	 1.4200 	 9.8892 	 9.4621 	 1.7479 	 58.0068 	 2.0479 	 52.5465 	 28.3728 	 5.4603 	 2.9600
  0.3500 	 1.4250 	 9.8931 	 9.4602 	 1.7435 	 57.9900 	 2.0458 	 52.6387 	 27.6826 	 5.3514 	 2.9600
  0.3500 	 1.4300 	 9.8969 	 9.4583 	 1.7391 	 57.9691 	 2.0437 	 52.7304 	 26.9800 	 5.2388 	 2.9600
  0.3500 	 1.4350 	 9.9008 	 9.4565 	 1.7347 	 57.9439 	 2.0416 	 52.8216 	 26.2640 	 5.1223 	 2.9600
  0.3500 	 1.4400 	 9.9046 	 9.4547 	 1.7304 	 57.9141 	 2.0396 	 52.9124 	 25.5334 	 5.0018 	 2.9600
  0.3500 	 1.4450 	 9.9084 	 9.4529 	 1.7260 	 57.8795 	 2.0375 	 53.0027 	 24.7868 	 4.8767 	 2.9600
  0.3500 	 1.4500 	 9.9122 	 9.4511 	 1.7218 	 57.8396 	 2.0355 	 53.0926 	 24.0226 	 4.7469 	 2.9600
  0.3500 	 1.4550 	 9.9159 	 9.4493 	 1.7175 	 57.7940 	 2.0335 	 53.1821 	 23.2391 	 4.6120 	 2.9600
  0.3500 	 1.4600 	 9.9196 	 9.4475 	 1.7133 	 57.7424 	 2.0316 	 53.2711 	 22.4342 	 4.4714 	 2.9600
  0.3500 	 1.4650 	 9.9233 	 9.4457 	 1.7091 	 57.6842 	 2.0296 	 53.3596 	 21.6054 	 4.3246 	 2.9600
  0.3500 	 1.4700 	 9.9270 	 9.4440 	 1.7049 	 57.6187 	 2.0277 	 53.4478 	 20.7498 	 4.1710 	 2.9600
  0.3500 	 1.4750 	 9.9306 	 9.4423 	 1.7007 	 57.5452 	 2.0257 	 53.5355 	 19.8638 	 4.0097 	 2.9600
  0.3500 	 1.4800 	 9.9342 	 9.4405 	 1.6966 	 57.4627 	 2.0238 	 53.6228 	 18.9432 	 3.8400 	 2.9600
  0.3500 	 1.4850 	 9.9378 	 9.4388 	 1.6925 	 57.3701 	 2.0219 	 53.7096 	 17.9826 	 3.6605 	 2.9600
  0.3500 	 1.4900 	 9.9414 	 9.4371 	 1.6884 	 57.2657 	 2.0201 	 53.7960 	 16.9751 	 3.4697 	 2.9600
  0.3500 	 1.4950 	 9.9449 	 9.4355 	 1.6844 	 57.1478 	 2.0182 	 53.8820 	 15.9116 	 3.2658 	 2.9600
  0.3500 	 1.5000 	 9.9484 	 9.4338 	 1.6803 	 57.0136 	 2.0164 	 53.9676 	 14.7801 	 3.0460 	 2.9600
  0.3500 	 1.5050 	 9.9519 	 9.4321 	 1.6763 	 56.8594 	 2.0146 	 54.0528 	 13.5635 	 2.8066 	 2.9600
  0.3500 	 1.5100 	 9.9554 	 9.4305 	 1.6724 	 56.6798 	 2.0128 	 54.1376 	 12.2361 	 2.5423 	 2.9600
  0.3500 	 1.5150 	 9.9588 	 9.4288 	 1.6684 	 56.4659 	 2.0110 	 54.2219 	 10.7572 	 2.2440 	 2.9600
  0.3500 	 1.5200 	 9.9623 	 9.4272 	 1.6645 	 56.2018 	 2.0092 	 54.3059 	 9.0525 	 1.8960 	 2.9600
  0.3500 	 1.5250 	 9.9657 	 9.4256 	 1.6606 	 55.8525 	 2.0075 	 54.3894 	 6.9579 	 1.4631 	 2.9600
  0.3500 	 1.3600 	 9.8363 	 9.5036 	 1.8077 	 57.8719 	 2.0795 	 51.3509 	 35.9140 	 6.5210 	 2.9700
  0.3500 	 1.3650 	 9.8405 	 9.5015 	 1.8029 	 57.8928 	 2.0771 	 51.4489 	 35.3190 	 6.4440 	 2.9700
  0.3500 	 1.3700 	 9.8447 	 9.4995 	 1.7982 	 57.9111 	 2.0748 	 51.5463 	 34.7184 	 6.3648 	 2.9700
  0.3500 	 1.3750 	 9.8489 	 9.4974 	 1.7934 	 57.9267 	 2.0724 	 51.6433 	 34.1119 	 6.2834 	 2.9700
  0.3500 	 1.3800 	 9.8531 	 9.4954 	 1.7887 	 57.9395 	 2.0701 	 51.7397 	 33.4992 	 6.1998 	 2.9700
  0.3500 	 1.3850 	 9.8573 	 9.4934 	 1.7840 	 57.9496 	 2.0678 	 51.8357 	 32.8797 	 6.1139 	 2.9700
  0.3500 	 1.3900 	 9.8614 	 9.4915 	 1.7794 	 57.9566 	 2.0655 	 51.9312 	 32.2532 	 6.0254 	 2.9700
  0.3500 	 1.3950 	 9.8655 	 9.4895 	 1.7748 	 57.9607 	 2.0633 	 52.0262 	 31.6191 	 5.9345 	 2.9700
  0.3500 	 1.4000 	 9.8695 	 9.4875 	 1.7702 	 57.9616 	 2.0611 	 52.1208 	 30.9769 	 5.8408 	 2.9700
  0.3500 	 1.4050 	 9.8735 	 9.4856 	 1.7656 	 57.9592 	 2.0589 	 52.2148 	 30.3260 	 5.7444 	 2.9700
  0.3500 	 1.4100 	 9.8775 	 9.4837 	 1.7611 	 57.9534 	 2.0567 	 52.3084 	 29.6658 	 5.6450 	 2.9700
  0.3500 	 1.4150 	 9.8815 	 9.4818 	 1.7566 	 57.9441 	 2.0545 	 52.4016 	 28.9956 	 5.5425 	 2.9700
  0.3500 	 1.4200 	 9.8854 	 9.4799 	 1.7521 	 57.9310 	 2.0524 	 52.4943 	 28.3147 	 5.4367 	 2.9700
  0.3500 	 1.4250 	 9.8893 	 9.4780 	 1.7477 	 57.9140 	 2.0503 	 52.5865 	 27.6222 	 5.3276 	 2.9700
  0.3500 	 1.4300 	 9.8932 	 9.4761 	 1.7433 	 57.8929 	 2.0482 	 52.6782 	 26.9171 	 5.2147 	 2.9700
  0.3500 	 1.4350 	 9.8971 	 9.4743 	 1.7389 	 57.8675 	 2.0461 	 52.7695 	 26.1984 	 5.0980 	 2.9700
  0.3500 	 1.4400 	 9.9009 	 9.4724 	 1.7346 	 57.8375 	 2.0440 	 52.8604 	 25.4649 	 4.9771 	 2.9700
  0.3500 	 1.4450 	 9.9047 	 9.4706 	 1.7302 	 57.8025 	 2.0420 	 52.9508 	 24.7152 	 4.8517 	 2.9700
  0.3500 	 1.4500 	 9.9085 	 9.4688 	 1.7259 	 57.7622 	 2.0400 	 53.0407 	 23.9478 	 4.7215 	 2.9700
  0.3500 	 1.4550 	 9.9122 	 9.4670 	 1.7217 	 57.7163 	 2.0379 	 53.1303 	 23.1607 	 4.5861 	 2.9700
  0.3500 	 1.4600 	 9.9160 	 9.4652 	 1.7174 	 57.6643 	 2.0360 	 53.2193 	 22.3518 	 4.4450 	 2.9700
  0.3500 	 1.4650 	 9.9197 	 9.4635 	 1.7132 	 57.6056 	 2.0340 	 53.3080 	 21.5188 	 4.2976 	 2.9700
  0.3500 	 1.4700 	 9.9233 	 9.4617 	 1.7090 	 57.5395 	 2.0320 	 53.3962 	 20.6584 	 4.1433 	 2.9700
  0.3500 	 1.4750 	 9.9270 	 9.4600 	 1.7049 	 57.4653 	 2.0301 	 53.4840 	 19.7672 	 3.9813 	 2.9700
  0.3500 	 1.4800 	 9.9306 	 9.4582 	 1.7007 	 57.3819 	 2.0282 	 53.5713 	 18.8406 	 3.8106 	 2.9700
  0.3500 	 1.4850 	 9.9342 	 9.4565 	 1.6966 	 57.2883 	 2.0263 	 53.6582 	 17.8732 	 3.6301 	 2.9700
  0.3500 	 1.4900 	 9.9378 	 9.4548 	 1.6925 	 57.1828 	 2.0244 	 53.7447 	 16.8577 	 3.4380 	 2.9700
  0.3500 	 1.4950 	 9.9413 	 9.4531 	 1.6884 	 57.0633 	 2.0226 	 53.8308 	 15.7849 	 3.2325 	 2.9700
  0.3500 	 1.5000 	 9.9449 	 9.4514 	 1.6844 	 56.9273 	 2.0207 	 53.9164 	 14.6420 	 3.0108 	 2.9700
  0.3500 	 1.5050 	 9.9484 	 9.4498 	 1.6804 	 56.7706 	 2.0189 	 54.0017 	 13.4111 	 2.7690 	 2.9700
  0.3500 	 1.5100 	 9.9519 	 9.4481 	 1.6764 	 56.5877 	 2.0171 	 54.0865 	 12.0651 	 2.5012 	 2.9700
  0.3500 	 1.5150 	 9.9553 	 9.4465 	 1.6724 	 56.3690 	 2.0153 	 54.1709 	 10.5601 	 2.1980 	 2.9700
  0.3500 	 1.5200 	 9.9588 	 9.4448 	 1.6685 	 56.0971 	 2.0135 	 54.2549 	 8.8149 	 1.8421 	 2.9700
  0.3500 	 1.5250 	 9.9622 	 9.4432 	 1.6646 	 55.7322 	 2.0117 	 54.3386 	 6.6424 	 1.3937 	 2.9700
  0.3500 	 1.3600 	 9.8323 	 9.5215 	 1.8121 	 57.7972 	 2.0841 	 51.2980 	 35.8769 	 6.4992 	 2.9800
  0.3500 	 1.3650 	 9.8366 	 9.5194 	 1.8073 	 57.8181 	 2.0817 	 51.3960 	 35.2805 	 6.4221 	 2.9800
  0.3500 	 1.3700 	 9.8409 	 9.5174 	 1.8025 	 57.8364 	 2.0793 	 51.4935 	 34.6785 	 6.3428 	 2.9800
  0.3500 	 1.3750 	 9.8451 	 9.5153 	 1.7978 	 57.8519 	 2.0770 	 51.5905 	 34.0706 	 6.2614 	 2.9800
  0.3500 	 1.3800 	 9.8493 	 9.5133 	 1.7931 	 57.8647 	 2.0747 	 51.6871 	 33.4563 	 6.1777 	 2.9800
  0.3500 	 1.3850 	 9.8534 	 9.5113 	 1.7884 	 57.8747 	 2.0724 	 51.7831 	 32.8352 	 6.0916 	 2.9800
  0.3500 	 1.3900 	 9.8575 	 9.5093 	 1.7837 	 57.8817 	 2.0701 	 51.8787 	 32.2070 	 6.0030 	 2.9800
  0.3500 	 1.3950 	 9.8616 	 9.5073 	 1.7791 	 57.8857 	 2.0678 	 51.9738 	 31.5711 	 5.9119 	 2.9800
  0.3500 	 1.4000 	 9.8657 	 9.5054 	 1.7745 	 57.8865 	 2.0656 	 52.0684 	 30.9271 	 5.8181 	 2.9800
  0.3500 	 1.4050 	 9.8697 	 9.5034 	 1.7699 	 57.8840 	 2.0634 	 52.1625 	 30.2743 	 5.7215 	 2.9800
  0.3500 	 1.4100 	 9.8737 	 9.5015 	 1.7654 	 57.8781 	 2.0612 	 52.2562 	 29.6121 	 5.6219 	 2.9800
  0.3500 	 1.4150 	 9.8777 	 9.4996 	 1.7609 	 57.8686 	 2.0590 	 52.3494 	 28.9398 	 5.5193 	 2.9800
  0.3500 	 1.4200 	 9.8817 	 9.4977 	 1.7564 	 57.8554 	 2.0569 	 52.4421 	 28.2566 	 5.4133 	 2.9800
  0.3500 	 1.4250 	 9.8856 	 9.4958 	 1.7519 	 57.8383 	 2.0547 	 52.5344 	 27.5617 	 5.3039 	 2.9800
  0.3500 	 1.4300 	 9.8895 	 9.4939 	 1.7475 	 57.8170 	 2.0526 	 52.6262 	 26.8542 	 5.1908 	 2.9800
  0.3500 	 1.4350 	 9.8934 	 9.4920 	 1.7431 	 57.7913 	 2.0505 	 52.7176 	 26.1328 	 5.0737 	 2.9800
  0.3500 	 1.4400 	 9.8972 	 9.4902 	 1.7388 	 57.7610 	 2.0485 	 52.8085 	 25.3964 	 4.9525 	 2.9800
  0.3500 	 1.4450 	 9.9010 	 9.4884 	 1.7344 	 57.7258 	 2.0464 	 52.8990 	 24.6437 	 4.8268 	 2.9800
  0.3500 	 1.4500 	 9.9048 	 9.4865 	 1.7301 	 57.6852 	 2.0444 	 52.9890 	 23.8729 	 4.6962 	 2.9800
  0.3500 	 1.4550 	 9.9086 	 9.4847 	 1.7258 	 57.6389 	 2.0424 	 53.0786 	 23.0822 	 4.5603 	 2.9800
  0.3500 	 1.4600 	 9.9123 	 9.4829 	 1.7216 	 57.5864 	 2.0404 	 53.1677 	 22.2694 	 4.4186 	 2.9800
  0.3500 	 1.4650 	 9.9160 	 9.4812 	 1.7174 	 57.5271 	 2.0384 	 53.2564 	 21.4320 	 4.2707 	 2.9800
  0.3500 	 1.4700 	 9.9197 	 9.4794 	 1.7132 	 57.4604 	 2.0364 	 53.3447 	 20.5669 	 4.1157 	 2.9800
  0.3500 	 1.4750 	 9.9234 	 9.4776 	 1.7090 	 57.3855 	 2.0345 	 53.4326 	 19.6703 	 3.9530 	 2.9800
  0.3500 	 1.4800 	 9.9270 	 9.4759 	 1.7048 	 57.3013 	 2.0326 	 53.5200 	 18.7377 	 3.7814 	 2.9800
  0.3500 	 1.4850 	 9.9306 	 9.4742 	 1.7007 	 57.2067 	 2.0307 	 53.6069 	 17.7633 	 3.5997 	 2.9800
  0.3500 	 1.4900 	 9.9342 	 9.4725 	 1.6966 	 57.0999 	 2.0288 	 53.6935 	 16.7397 	 3.4064 	 2.9800
  0.3500 	 1.4950 	 9.9378 	 9.4707 	 1.6925 	 56.9790 	 2.0269 	 53.7797 	 15.6574 	 3.1993 	 2.9800
  0.3500 	 1.5000 	 9.9413 	 9.4691 	 1.6885 	 56.8410 	 2.0250 	 53.8654 	 14.5028 	 2.9756 	 2.9800
  0.3500 	 1.5050 	 9.9448 	 9.4674 	 1.6845 	 56.6818 	 2.0232 	 53.9507 	 13.2573 	 2.7312 	 2.9800
  0.3500 	 1.5100 	 9.9483 	 9.4657 	 1.6804 	 56.4954 	 2.0214 	 54.0356 	 11.8920 	 2.4599 	 2.9800
  0.3500 	 1.5150 	 9.9518 	 9.4641 	 1.6765 	 56.2716 	 2.0196 	 54.1201 	 10.3597 	 2.1516 	 2.9800
  0.3500 	 1.5200 	 9.9552 	 9.4624 	 1.6725 	 55.9914 	 2.0178 	 54.2041 	 8.5711 	 1.7872 	 2.9800
  0.3500 	 1.5250 	 9.9587 	 9.4608 	 1.6686 	 55.6092 	 2.0160 	 54.2878 	 6.3118 	 1.3214 	 2.9800
  0.3500 	 1.3600 	 9.8284 	 9.5394 	 1.8166 	 57.7228 	 2.0887 	 51.2452 	 35.8399 	 6.4776 	 2.9900
  0.3500 	 1.3650 	 9.8327 	 9.5373 	 1.8117 	 57.7436 	 2.0863 	 51.3433 	 35.2421 	 6.4003 	 2.9900
  0.3500 	 1.3700 	 9.8370 	 9.5353 	 1.8069 	 57.7619 	 2.0839 	 51.4409 	 34.6387 	 6.3210 	 2.9900
  0.3500 	 1.3750 	 9.8412 	 9.5332 	 1.8022 	 57.7774 	 2.0815 	 51.5379 	 34.0292 	 6.2395 	 2.9900
  0.3500 	 1.3800 	 9.8454 	 9.5312 	 1.7974 	 57.7902 	 2.0792 	 51.6345 	 33.4134 	 6.1556 	 2.9900
  0.3500 	 1.3850 	 9.8496 	 9.5291 	 1.7927 	 57.8001 	 2.0769 	 51.7306 	 32.7907 	 6.0694 	 2.9900
  0.3500 	 1.3900 	 9.8537 	 9.5271 	 1.7880 	 57.8070 	 2.0746 	 51.8263 	 32.1608 	 5.9807 	 2.9900
  0.3500 	 1.3950 	 9.8578 	 9.5252 	 1.7834 	 57.8109 	 2.0723 	 51.9214 	 31.5232 	 5.8895 	 2.9900
  0.3500 	 1.4000 	 9.8619 	 9.5232 	 1.7788 	 57.8116 	 2.0701 	 52.0161 	 30.8773 	 5.7955 	 2.9900
  0.3500 	 1.4050 	 9.8659 	 9.5212 	 1.7742 	 57.8091 	 2.0679 	 52.1103 	 30.2226 	 5.6988 	 2.9900
  0.3500 	 1.4100 	 9.8700 	 9.5193 	 1.7697 	 57.8031 	 2.0657 	 52.2040 	 29.5584 	 5.5990 	 2.9900
  0.3500 	 1.4150 	 9.8740 	 9.5173 	 1.7651 	 57.7934 	 2.0635 	 52.2973 	 28.8839 	 5.4961 	 2.9900
  0.3500 	 1.4200 	 9.8779 	 9.5154 	 1.7607 	 57.7801 	 2.0613 	 52.3901 	 28.1985 	 5.3900 	 2.9900
  0.3500 	 1.4250 	 9.8819 	 9.5135 	 1.7562 	 57.7628 	 2.0592 	 52.4825 	 27.5013 	 5.2803 	 2.9900
  0.3500 	 1.4300 	 9.8858 	 9.5116 	 1.7518 	 57.7413 	 2.0571 	 52.5744 	 26.7912 	 5.1669 	 2.9900
  0.3500 	 1.4350 	 9.8896 	 9.5098 	 1.7473 	 57.7154 	 2.0550 	 52.6658 	 26.0671 	 5.0496 	 2.9900
  0.3500 	 1.4400 	 9.8935 	 9.5079 	 1.7430 	 57.6848 	 2.0529 	 52.7568 	 25.3279 	 4.9280 	 2.9900
  0.3500 	 1.4450 	 9.8973 	 9.5061 	 1.7386 	 57.6493 	 2.0508 	 52.8473 	 24.5720 	 4.8019 	 2.9900
  0.3500 	 1.4500 	 9.9011 	 9.5042 	 1.7343 	 57.6083 	 2.0488 	 52.9374 	 23.7979 	 4.6709 	 2.9900
  0.3500 	 1.4550 	 9.9049 	 9.5024 	 1.7300 	 57.5616 	 2.0468 	 53.0270 	 23.0036 	 4.5346 	 2.9900
  0.3500 	 1.4600 	 9.9087 	 9.5006 	 1.7257 	 57.5087 	 2.0448 	 53.1163 	 22.1868 	 4.3924 	 2.9900
  0.3500 	 1.4650 	 9.9124 	 9.4988 	 1.7215 	 57.4489 	 2.0428 	 53.2050 	 21.3450 	 4.2439 	 2.9900
  0.3500 	 1.4700 	 9.9161 	 9.4971 	 1.7173 	 57.3816 	 2.0408 	 53.2934 	 20.4751 	 4.0882 	 2.9900
  0.3500 	 1.4750 	 9.9198 	 9.4953 	 1.7131 	 57.3060 	 2.0389 	 53.3813 	 19.5731 	 3.9247 	 2.9900
  0.3500 	 1.4800 	 9.9234 	 9.4935 	 1.7089 	 57.2209 	 2.0369 	 53.4688 	 18.6343 	 3.7522 	 2.9900
  0.3500 	 1.4850 	 9.9270 	 9.4918 	 1.7048 	 57.1252 	 2.0350 	 53.5558 	 17.6529 	 3.5694 	 2.9900
  0.3500 	 1.4900 	 9.9306 	 9.4901 	 1.7007 	 57.0172 	 2.0331 	 53.6424 	 16.6212 	 3.3748 	 2.9900
  0.3500 	 1.4950 	 9.9342 	 9.4884 	 1.6966 	 56.8947 	 2.0312 	 53.7286 	 15.5291 	 3.1661 	 2.9900
  0.3500 	 1.5000 	 9.9378 	 9.4867 	 1.6925 	 56.7548 	 2.0294 	 53.8144 	 14.3626 	 2.9403 	 2.9900
  0.3500 	 1.5050 	 9.9413 	 9.4850 	 1.6885 	 56.5930 	 2.0275 	 53.8998 	 13.1020 	 2.6932 	 2.9900
  0.3500 	 1.5100 	 9.9448 	 9.4833 	 1.6845 	 56.4030 	 2.0257 	 53.9848 	 11.7168 	 2.4183 	 2.9900
  0.3500 	 1.5150 	 9.9483 	 9.4816 	 1.6805 	 56.1739 	 2.0239 	 54.0693 	 10.1558 	 2.1046 	 2.9900
  0.3500 	 1.5200 	 9.9517 	 9.4800 	 1.6765 	 55.8847 	 2.0221 	 54.1535 	 8.3208 	 1.7312 	 2.9900
  0.3500 	 1.5250 	 9.9552 	 9.4783 	 1.6726 	 55.4830 	 2.0203 	 54.2372 	 5.9637 	 1.2458 	 2.9900
  0.3500 	 1.3600 	 9.8245 	 9.5573 	 1.8210 	 57.6486 	 2.0933 	 51.1926 	 35.8029 	 6.4560 	 3.0000
  0.3500 	 1.3650 	 9.8288 	 9.5552 	 1.8161 	 57.6694 	 2.0909 	 51.2907 	 35.2037 	 6.3787 	 3.0000
  0.3500 	 1.3700 	 9.8331 	 9.5531 	 1.8113 	 57.6876 	 2.0885 	 51.3883 	 34.5988 	 6.2993 	 3.0000
  0.3500 	 1.3750 	 9.8373 	 9.5511 	 1.8065 	 57.7031 	 2.0861 	 51.4855 	 33.9879 	 6.2176 	 3.0000
  0.3500 	 1.3800 	 9.8415 	 9.5490 	 1.8018 	 57.7158 	 2.0838 	 51.5821 	 33.3705 	 6.1337 	 3.0000
  0.3500 	 1.3850 	 9.8457 	 9.5470 	 1.7971 	 57.7257 	 2.0814 	 51.6783 	 32.7462 	 6.0474 	 3.0000
  0.3500 	 1.3900 	 9.8499 	 9.5450 	 1.7924 	 57.7326 	 2.0791 	 51.7740 	 32.1147 	 5.9586 	 3.0000
  0.3500 	 1.3950 	 9.8540 	 9.5430 	 1.7877 	 57.7364 	 2.0769 	 51.8692 	 31.4753 	 5.8672 	 3.0000
  0.3500 	 1.4000 	 9.8581 	 9.5410 	 1.7831 	 57.7370 	 2.0746 	 51.9640 	 30.8276 	 5.7731 	 3.0000
  0.3500 	 1.4050 	 9.8621 	 9.5390 	 1.7785 	 57.7344 	 2.0724 	 52.0582 	 30.1709 	 5.6761 	 3.0000
  0.3500 	 1.4100 	 9.8662 	 9.5370 	 1.7739 	 57.7282 	 2.0702 	 52.1520 	 29.5047 	 5.5762 	 3.0000
  0.3500 	 1.4150 	 9.8702 	 9.5351 	 1.7694 	 57.7185 	 2.0680 	 52.2454 	 28.8281 	 5.4731 	 3.0000
  0.3500 	 1.4200 	 9.8742 	 9.5332 	 1.7649 	 57.7050 	 2.0658 	 52.3382 	 28.1405 	 5.3667 	 3.0000
  0.3500 	 1.4250 	 9.8781 	 9.5313 	 1.7604 	 57.6875 	 2.0636 	 52.4307 	 27.4408 	 5.2568 	 3.0000
  0.3500 	 1.4300 	 9.8820 	 9.5294 	 1.7560 	 57.6658 	 2.0615 	 52.5226 	 26.7282 	 5.1432 	 3.0000
  0.3500 	 1.4350 	 9.8859 	 9.5275 	 1.7516 	 57.6397 	 2.0594 	 52.6141 	 26.0014 	 5.0256 	 3.0000
  0.3500 	 1.4400 	 9.8898 	 9.5256 	 1.7472 	 57.6089 	 2.0573 	 52.7052 	 25.2593 	 4.9037 	 3.0000
  0.3500 	 1.4450 	 9.8936 	 9.5238 	 1.7428 	 57.5730 	 2.0552 	 52.7958 	 24.5003 	 4.7772 	 3.0000
  0.3500 	 1.4500 	 9.8975 	 9.5219 	 1.7385 	 57.5317 	 2.0532 	 52.8859 	 23.7228 	 4.6458 	 3.0000
  0.3500 	 1.4550 	 9.9012 	 9.5201 	 1.7342 	 57.4846 	 2.0512 	 52.9756 	 22.9248 	 4.5090 	 3.0000
  0.3500 	 1.4600 	 9.9050 	 9.5183 	 1.7299 	 57.4312 	 2.0491 	 53.0649 	 22.1041 	 4.3663 	 3.0000
  0.3500 	 1.4650 	 9.9087 	 9.5165 	 1.7256 	 57.3709 	 2.0472 	 53.1537 	 21.2579 	 4.2172 	 3.0000
  0.3500 	 1.4700 	 9.9125 	 9.5147 	 1.7214 	 57.3030 	 2.0452 	 53.2421 	 20.3831 	 4.0608 	 3.0000
  0.3500 	 1.4750 	 9.9161 	 9.5129 	 1.7172 	 57.2266 	 2.0432 	 53.3301 	 19.4756 	 3.8965 	 3.0000
  0.3500 	 1.4800 	 9.9198 	 9.5112 	 1.7130 	 57.1407 	 2.0413 	 53.4177 	 18.5307 	 3.7231 	 3.0000
  0.3500 	 1.4850 	 9.9234 	 9.5094 	 1.7089 	 57.0440 	 2.0394 	 53.5048 	 17.5421 	 3.5392 	 3.0000
  0.3500 	 1.4900 	 9.9271 	 9.5077 	 1.7048 	 56.9347 	 2.0375 	 53.5915 	 16.5021 	 3.3432 	 3.0000
  0.3500 	 1.4950 	 9.9306 	 9.5060 	 1.7007 	 56.8106 	 2.0356 	 53.6777 	 15.4000 	 3.1329 	 3.0000
  0.3500 	 1.5000 	 9.9342 	 9.5043 	 1.6966 	 56.6686 	 2.0337 	 53.7636 	 14.2214 	 2.9050 	 3.0000
  0.3500 	 1.5050 	 9.9378 	 9.5026 	 1.6926 	 56.5042 	 2.0318 	 53.8490 	 12.9452 	 2.6552 	 3.0000
  0.3500 	 1.5100 	 9.9413 	 9.5009 	 1.6885 	 56.3105 	 2.0300 	 53.9341 	 11.5392 	 2.3764 	 3.0000
  0.3500 	 1.5150 	 9.9448 	 9.4992 	 1.6845 	 56.0757 	 2.0282 	 54.0187 	 9.9482 	 2.0570 	 3.0000
  0.3500 	 1.5200 	 9.9482 	 9.4975 	 1.6806 	 55.7769 	 2.0264 	 54.1029 	 8.0633 	 1.6740 	 3.0000
  0.3500 	 1.5250 	 9.9517 	 9.4959 	 1.6766 	 55.3529 	 2.0246 	 54.1867 	 5.5948 	 1.1662 	 3.0000
  0.3600 	 1.3700 	 9.8720 	 9.3736 	 1.7634 	 58.7817 	 2.0427 	 51.9195 	 35.8208 	 6.8622 	 2.9000
  0.3600 	 1.3750 	 9.8761 	 9.3717 	 1.7587 	 58.8013 	 2.0404 	 52.0160 	 35.2535 	 6.7852 	 2.9000
  0.3600 	 1.3800 	 9.8801 	 9.3697 	 1.7541 	 58.8183 	 2.0382 	 52.1120 	 34.6814 	 6.7063 	 2.9000
  0.3600 	 1.3850 	 9.8842 	 9.3678 	 1.7495 	 58.8328 	 2.0359 	 52.2076 	 34.1041 	 6.6252 	 2.9000
  0.3600 	 1.3900 	 9.8882 	 9.3659 	 1.7450 	 58.8446 	 2.0337 	 52.3026 	 33.5212 	 6.5420 	 2.9000
  0.3600 	 1.3950 	 9.8922 	 9.3640 	 1.7404 	 58.8537 	 2.0316 	 52.3971 	 32.9325 	 6.4566 	 2.9000
  0.3600 	 1.4000 	 9.8961 	 9.3621 	 1.7360 	 58.8601 	 2.0294 	 52.4912 	 32.3376 	 6.3688 	 2.9000
  0.3600 	 1.4050 	 9.9001 	 9.3603 	 1.7315 	 58.8635 	 2.0273 	 52.5848 	 31.7360 	 6.2787 	 2.9000
  0.3600 	 1.4100 	 9.9040 	 9.3584 	 1.7270 	 58.8639 	 2.0252 	 52.6780 	 31.1274 	 6.1860 	 2.9000
  0.3600 	 1.4150 	 9.9078 	 9.3566 	 1.7226 	 58.8613 	 2.0231 	 52.7706 	 30.5113 	 6.0907 	 2.9000
  0.3600 	 1.4200 	 9.9117 	 9.3548 	 1.7183 	 58.8554 	 2.0210 	 52.8628 	 29.8872 	 5.9926 	 2.9000
  0.3600 	 1.4250 	 9.9155 	 9.3530 	 1.7139 	 58.8462 	 2.0189 	 52.9546 	 29.2545 	 5.8916 	 2.9000
  0.3600 	 1.4300 	 9.9193 	 9.3512 	 1.7096 	 58.8335 	 2.0169 	 53.0459 	 28.6125 	 5.7877 	 2.9000
  0.3600 	 1.4350 	 9.9231 	 9.3494 	 1.7053 	 58.8172 	 2.0149 	 53.1367 	 27.9606 	 5.6805 	 2.9000
  0.3600 	 1.4400 	 9.9268 	 9.3476 	 1.7010 	 58.7971 	 2.0129 	 53.2271 	 27.2981 	 5.5700 	 2.9000
  0.3600 	 1.4450 	 9.9305 	 9.3459 	 1.6968 	 58.7729 	 2.0109 	 53.3170 	 26.6241 	 5.4559 	 2.9000
  0.3600 	 1.4500 	 9.9342 	 9.3442 	 1.6926 	 58.7445 	 2.0090 	 53.4065 	 25.9376 	 5.3380 	 2.9000
  0.3600 	 1.4550 	 9.9379 	 9.3424 	 1.6884 	 58.7116 	 2.0070 	 53.4955 	 25.2375 	 5.2161 	 2.9000
  0.3600 	 1.4600 	 9.9415 	 9.3407 	 1.6842 	 58.6740 	 2.0051 	 53.5841 	 24.5227 	 5.0899 	 2.9000
  0.3600 	 1.4650 	 9.9451 	 9.3390 	 1.6801 	 58.6313 	 2.0032 	 53.6723 	 23.7918 	 4.9590 	 2.9000
  0.3600 	 1.4700 	 9.9487 	 9.3373 	 1.6760 	 58.5831 	 2.0013 	 53.7600 	 23.0432 	 4.8231 	 2.9000
  0.3600 	 1.4750 	 9.9523 	 9.3357 	 1.6719 	 58.5290 	 1.9994 	 53.8473 	 22.2750 	 4.6817 	 2.9000
  0.3600 	 1.4800 	 9.9558 	 9.3340 	 1.6678 	 58.4686 	 1.9976 	 53.9342 	 21.4851 	 4.5344 	 2.9000
  0.3600 	 1.4850 	 9.9593 	 9.3323 	 1.6638 	 58.4012 	 1.9957 	 54.0206 	 20.6710 	 4.3805 	 2.9000
  0.3600 	 1.4900 	 9.9628 	 9.3307 	 1.6598 	 58.3261 	 1.9939 	 54.1066 	 19.8295 	 4.2194 	 2.9000
  0.3600 	 1.4950 	 9.9663 	 9.3291 	 1.6558 	 58.2424 	 1.9921 	 54.1922 	 18.9570 	 4.0502 	 2.9000
  0.3600 	 1.5000 	 9.9697 	 9.3275 	 1.6518 	 58.1492 	 1.9903 	 54.2774 	 18.0489 	 3.8718 	 2.9000
  0.3600 	 1.5050 	 9.9732 	 9.3258 	 1.6479 	 58.0451 	 1.9886 	 54.3622 	 17.0996 	 3.6829 	 2.9000
  0.3600 	 1.5100 	 9.9766 	 9.3243 	 1.6440 	 57.9284 	 1.9868 	 54.4465 	 16.1015 	 3.4819 	 2.9000
  0.3600 	 1.5150 	 9.9799 	 9.3227 	 1.6401 	 57.7968 	 1.9851 	 54.5305 	 15.0450 	 3.2663 	 2.9000
  0.3600 	 1.5200 	 9.9833 	 9.3211 	 1.6362 	 57.6473 	 1.9834 	 54.6140 	 13.9166 	 3.0333 	 2.9000
  0.3600 	 1.5250 	 9.9866 	 9.3195 	 1.6324 	 57.4755 	 1.9816 	 54.6971 	 12.6971 	 2.7784 	 2.9000
  0.3600 	 1.5300 	 9.9899 	 9.3180 	 1.6285 	 57.2748 	 1.9800 	 54.7798 	 11.3572 	 2.4950 	 2.9000
  0.3600 	 1.5350 	 9.9932 	 9.3165 	 1.6248 	 57.0339 	 1.9783 	 54.8622 	 9.8477 	 2.1718 	 2.9000
  0.3600 	 1.5400 	 9.9965 	 9.3149 	 1.6210 	 56.7316 	 1.9766 	 54.9441 	 8.0738 	 1.7875 	 2.9000
  0.3600 	 1.5450 	 9.9997 	 9.3134 	 1.6172 	 56.3141 	 1.9750 	 55.0256 	 5.7977 	 1.2885 	 2.9000
  0.3600 	 1.3700 	 9.8681 	 9.3917 	 1.7678 	 58.7047 	 2.0472 	 51.8658 	 35.7840 	 6.8389 	 2.9100
  0.3600 	 1.3750 	 9.8722 	 9.3897 	 1.7631 	 58.7242 	 2.0450 	 51.9624 	 35.2154 	 6.7618 	 2.9100
  0.3600 	 1.3800 	 9.8763 	 9.3878 	 1.7585 	 58.7412 	 2.0427 	 52.0584 	 34.6418 	 6.6828 	 2.9100
  0.3600 	 1.3850 	 9.8803 	 9.3858 	 1.7539 	 58.7557 	 2.0405 	 52.1540 	 34.0631 	 6.6016 	 2.9100
  0.3600 	 1.3900 	 9.8844 	 9.3839 	 1.7493 	 58.7675 	 2.0383 	 52.2491 	 33.4787 	 6.5183 	 2.9100
  0.3600 	 1.3950 	 9.8884 	 9.3820 	 1.7448 	 58.7765 	 2.0361 	 52.3438 	 32.8885 	 6.4328 	 2.9100
  0.3600 	 1.4000 	 9.8923 	 9.3801 	 1.7403 	 58.7828 	 2.0339 	 52.4379 	 32.2919 	 6.3449 	 2.9100
  0.3600 	 1.4050 	 9.8963 	 9.3782 	 1.7358 	 58.7862 	 2.0318 	 52.5316 	 31.6887 	 6.2546 	 2.9100
  0.3600 	 1.4100 	 9.9002 	 9.3764 	 1.7313 	 58.7865 	 2.0297 	 52.6248 	 31.0784 	 6.1618 	 2.9100
  0.3600 	 1.4150 	 9.9041 	 9.3745 	 1.7269 	 58.7838 	 2.0276 	 52.7175 	 30.4604 	 6.0663 	 2.9100
  0.3600 	 1.4200 	 9.9079 	 9.3727 	 1.7225 	 58.7778 	 2.0255 	 52.8098 	 29.8344 	 5.9680 	 2.9100
  0.3600 	 1.4250 	 9.9118 	 9.3709 	 1.7182 	 58.7685 	 2.0234 	 52.9016 	 29.1996 	 5.8669 	 2.9100
  0.3600 	 1.4300 	 9.9156 	 9.3691 	 1.7138 	 58.7557 	 2.0214 	 52.9930 	 28.5556 	 5.7627 	 2.9100
  0.3600 	 1.4350 	 9.9194 	 9.3673 	 1.7095 	 58.7392 	 2.0194 	 53.0839 	 27.9015 	 5.6553 	 2.9100
  0.3600 	 1.4400 	 9.9231 	 9.3655 	 1.7052 	 58.7188 	 2.0173 	 53.1743 	 27.2366 	 5.5445 	 2.9100
  0.3600 	 1.4450 	 9.9268 	 9.3638 	 1.7010 	 58.6945 	 2.0154 	 53.2643 	 26.5601 	 5.4302 	 2.9100
  0.3600 	 1.4500 	 9.9305 	 9.3620 	 1.6968 	 58.6658 	 2.0134 	 53.3538 	 25.8709 	 5.3120 	 2.9100
  0.3600 	 1.4550 	 9.9342 	 9.3603 	 1.6926 	 58.6327 	 2.0114 	 53.4430 	 25.1681 	 5.1897 	 2.9100
  0.3600 	 1.4600 	 9.9379 	 9.3586 	 1.6884 	 58.5947 	 2.0095 	 53.5316 	 24.4503 	 5.0631 	 2.9100
  0.3600 	 1.4650 	 9.9415 	 9.3569 	 1.6842 	 58.5517 	 2.0076 	 53.6199 	 23.7161 	 4.9318 	 2.9100
  0.3600 	 1.4700 	 9.9451 	 9.3552 	 1.6801 	 58.5031 	 2.0057 	 53.7077 	 22.9640 	 4.7954 	 2.9100
  0.3600 	 1.4750 	 9.9487 	 9.3535 	 1.6760 	 58.4486 	 2.0038 	 53.7950 	 22.1920 	 4.6536 	 2.9100
  0.3600 	 1.4800 	 9.9522 	 9.3518 	 1.6719 	 58.3876 	 2.0020 	 53.8820 	 21.3979 	 4.5056 	 2.9100
  0.3600 	 1.4850 	 9.9557 	 9.3501 	 1.6679 	 58.3196 	 2.0001 	 53.9685 	 20.5792 	 4.3511 	 2.9100
  0.3600 	 1.4900 	 9.9592 	 9.3485 	 1.6639 	 58.2438 	 1.9983 	 54.0546 	 19.7326 	 4.1892 	 2.9100
  0.3600 	 1.4950 	 9.9627 	 9.3469 	 1.6599 	 58.1593 	 1.9965 	 54.1402 	 18.8544 	 4.0191 	 2.9100
  0.3600 	 1.5000 	 9.9662 	 9.3452 	 1.6559 	 58.0651 	 1.9947 	 54.2255 	 17.9398 	 3.8396 	 2.9100
  0.3600 	 1.5050 	 9.9696 	 9.3436 	 1.6520 	 57.9598 	 1.9929 	 54.3103 	 16.9830 	 3.6495 	 2.9100
  0.3600 	 1.5100 	 9.9730 	 9.3420 	 1.6480 	 57.8416 	 1.9911 	 54.3947 	 15.9762 	 3.4469 	 2.9100
  0.3600 	 1.5150 	 9.9764 	 9.3404 	 1.6441 	 57.7083 	 1.9894 	 54.4787 	 14.9093 	 3.2295 	 2.9100
  0.3600 	 1.5200 	 9.9798 	 9.3388 	 1.6403 	 57.5565 	 1.9877 	 54.5623 	 13.7682 	 2.9942 	 2.9100
  0.3600 	 1.5250 	 9.9831 	 9.3373 	 1.6364 	 57.3817 	 1.9860 	 54.6455 	 12.5325 	 2.7362 	 2.9100
  0.3600 	 1.5300 	 9.9865 	 9.3357 	 1.6326 	 57.1768 	 1.9843 	 54.7283 	 11.1708 	 2.4485 	 2.9100
  0.3600 	 1.5350 	 9.9898 	 9.3342 	 1.6288 	 56.9296 	 1.9826 	 54.8107 	 9.6298 	 2.1189 	 2.9100
  0.3600 	 1.5400 	 9.9930 	 9.3326 	 1.6250 	 56.6165 	 1.9809 	 54.8927 	 7.8038 	 1.7238 	 2.9100
  0.3600 	 1.5450 	 9.9963 	 9.3311 	 1.6212 	 56.1742 	 1.9792 	 54.9743 	 5.4112 	 1.1999 	 2.9100
  0.3600 	 1.3700 	 9.8642 	 9.4097 	 1.7722 	 58.6279 	 2.0518 	 51.8122 	 35.7472 	 6.8157 	 2.9200
  0.3600 	 1.3750 	 9.8683 	 9.4077 	 1.7675 	 58.6474 	 2.0496 	 51.9088 	 35.1772 	 6.7386 	 2.9200
  0.3600 	 1.3800 	 9.8724 	 9.4058 	 1.7629 	 58.6644 	 2.0473 	 52.0050 	 34.6023 	 6.6594 	 2.9200
  0.3600 	 1.3850 	 9.8765 	 9.4038 	 1.7583 	 58.6788 	 2.0451 	 52.1006 	 34.0221 	 6.5782 	 2.9200
  0.3600 	 1.3900 	 9.8805 	 9.4019 	 1.7537 	 58.6906 	 2.0428 	 52.1958 	 33.4362 	 6.4948 	 2.9200
  0.3600 	 1.3950 	 9.8846 	 9.4000 	 1.7491 	 58.6996 	 2.0406 	 52.2905 	 32.8444 	 6.4091 	 2.9200
  0.3600 	 1.4000 	 9.8885 	 9.3981 	 1.7446 	 58.7058 	 2.0385 	 52.3847 	 32.2463 	 6.3211 	 2.9200
  0.3600 	 1.4050 	 9.8925 	 9.3962 	 1.7401 	 58.7091 	 2.0363 	 52.4785 	 31.6414 	 6.2307 	 2.9200
  0.3600 	 1.4100 	 9.8964 	 9.3943 	 1.7356 	 58.7094 	 2.0342 	 52.5717 	 31.0293 	 6.1377 	 2.9200
  0.3600 	 1.4150 	 9.9003 	 9.3925 	 1.7312 	 58.7066 	 2.0321 	 52.6645 	 30.4095 	 6.0420 	 2.9200
  0.3600 	 1.4200 	 9.9042 	 9.3906 	 1.7268 	 58.7005 	 2.0300 	 52.7569 	 29.7816 	 5.9436 	 2.9200
  0.3600 	 1.4250 	 9.9080 	 9.3888 	 1.7224 	 58.6910 	 2.0279 	 52.8487 	 29.1448 	 5.8423 	 2.9200
  0.3600 	 1.4300 	 9.9119 	 9.3870 	 1.7181 	 58.6781 	 2.0258 	 52.9402 	 28.4986 	 5.7379 	 2.9200
  0.3600 	 1.4350 	 9.9156 	 9.3852 	 1.7138 	 58.6614 	 2.0238 	 53.0311 	 27.8423 	 5.6303 	 2.9200
  0.3600 	 1.4400 	 9.9194 	 9.3834 	 1.7095 	 58.6409 	 2.0218 	 53.1217 	 27.1751 	 5.5192 	 2.9200
  0.3600 	 1.4450 	 9.9231 	 9.3816 	 1.7052 	 58.6163 	 2.0198 	 53.2117 	 26.4960 	 5.4046 	 2.9200
  0.3600 	 1.4500 	 9.9269 	 9.3799 	 1.7010 	 58.5874 	 2.0178 	 53.3013 	 25.8042 	 5.2861 	 2.9200
  0.3600 	 1.4550 	 9.9305 	 9.3781 	 1.6967 	 58.5540 	 2.0159 	 53.3905 	 25.0986 	 5.1635 	 2.9200
  0.3600 	 1.4600 	 9.9342 	 9.3764 	 1.6926 	 58.5158 	 2.0139 	 53.4793 	 24.3777 	 5.0365 	 2.9200
  0.3600 	 1.4650 	 9.9378 	 9.3747 	 1.6884 	 58.4723 	 2.0120 	 53.5676 	 23.6403 	 4.9048 	 2.9200
  0.3600 	 1.4700 	 9.9415 	 9.3730 	 1.6843 	 58.4233 	 2.0101 	 53.6554 	 22.8846 	 4.7679 	 2.9200
  0.3600 	 1.4750 	 9.9450 	 9.3713 	 1.6802 	 58.3684 	 2.0082 	 53.7429 	 22.1088 	 4.6255 	 2.9200
  0.3600 	 1.4800 	 9.9486 	 9.3696 	 1.6761 	 58.3069 	 2.0063 	 53.8299 	 21.3105 	 4.4770 	 2.9200
  0.3600 	 1.4850 	 9.9522 	 9.3679 	 1.6720 	 58.2382 	 2.0045 	 53.9164 	 20.4871 	 4.3218 	 2.9200
  0.3600 	 1.4900 	 9.9557 	 9.3663 	 1.6680 	 58.1617 	 2.0027 	 54.0026 	 19.6354 	 4.1591 	 2.9200
  0.3600 	 1.4950 	 9.9592 	 9.3646 	 1.6640 	 58.0764 	 2.0008 	 54.0883 	 18.7514 	 3.9880 	 2.9200
  0.3600 	 1.5000 	 9.9626 	 9.3630 	 1.6600 	 57.9812 	 1.9990 	 54.1736 	 17.8303 	 3.8075 	 2.9200
  0.3600 	 1.5050 	 9.9661 	 9.3614 	 1.6560 	 57.8747 	 1.9972 	 54.2585 	 16.8659 	 3.6161 	 2.9200
  0.3600 	 1.5100 	 9.9695 	 9.3597 	 1.6521 	 57.7550 	 1.9955 	 54.3430 	 15.8502 	 3.4120 	 2.9200
  0.3600 	 1.5150 	 9.9729 	 9.3581 	 1.6482 	 57.6198 	 1.9937 	 54.4271 	 14.7726 	 3.1927 	 2.9200
  0.3600 	 1.5200 	 9.9763 	 9.3566 	 1.6443 	 57.4657 	 1.9920 	 54.5108 	 13.6184 	 2.9549 	 2.9200
  0.3600 	 1.5250 	 9.9796 	 9.3550 	 1.6404 	 57.2878 	 1.9903 	 54.5940 	 12.3660 	 2.6938 	 2.9200
  0.3600 	 1.5300 	 9.9830 	 9.3534 	 1.6366 	 57.0785 	 1.9886 	 54.6769 	 10.9817 	 2.4016 	 2.9200
  0.3600 	 1.5350 	 9.9863 	 9.3519 	 1.6328 	 56.8247 	 1.9869 	 54.7594 	 9.4074 	 2.0653 	 2.9200
  0.3600 	 1.5400 	 9.9896 	 9.3503 	 1.6290 	 56.4998 	 1.9852 	 54.8414 	 7.5246 	 1.6584 	 2.9200
  0.3600 	 1.3700 	 9.8603 	 9.4277 	 1.7766 	 58.5514 	 2.0564 	 51.7588 	 35.7104 	 6.7926 	 2.9300
  0.3600 	 1.3750 	 9.8645 	 9.4257 	 1.7719 	 58.5709 	 2.0541 	 51.8555 	 35.1391 	 6.7154 	 2.9300
  0.3600 	 1.3800 	 9.8686 	 9.4237 	 1.7672 	 58.5879 	 2.0519 	 51.9517 	 34.5628 	 6.6362 	 2.9300
  0.3600 	 1.3850 	 9.8726 	 9.4218 	 1.7626 	 58.6023 	 2.0496 	 52.0474 	 33.9811 	 6.5549 	 2.9300
  0.3600 	 1.3900 	 9.8767 	 9.4198 	 1.7580 	 58.6140 	 2.0474 	 52.1426 	 33.3938 	 6.4714 	 2.9300
  0.3600 	 1.3950 	 9.8807 	 9.4179 	 1.7535 	 58.6229 	 2.0452 	 52.2374 	 32.8004 	 6.3856 	 2.9300
  0.3600 	 1.4000 	 9.8847 	 9.4160 	 1.7489 	 58.6291 	 2.0430 	 52.3317 	 32.2007 	 6.2974 	 2.9300
  0.3600 	 1.4050 	 9.8887 	 9.4141 	 1.7444 	 58.6323 	 2.0408 	 52.4255 	 31.5941 	 6.2069 	 2.9300
  0.3600 	 1.4100 	 9.8926 	 9.4122 	 1.7399 	 58.6325 	 2.0387 	 52.5188 	 30.9802 	 6.1137 	 2.9300
  0.3600 	 1.4150 	 9.8966 	 9.4104 	 1.7355 	 58.6296 	 2.0366 	 52.6117 	 30.3586 	 6.0179 	 2.9300
  0.3600 	 1.4200 	 9.9004 	 9.4085 	 1.7311 	 58.6234 	 2.0345 	 52.7041 	 29.7287 	 5.9193 	 2.9300
  0.3600 	 1.4250 	 9.9043 	 9.4067 	 1.7267 	 58.6138 	 2.0324 	 52.7960 	 29.0900 	 5.8178 	 2.9300
  0.3600 	 1.4300 	 9.9081 	 9.4049 	 1.7223 	 58.6007 	 2.0303 	 52.8875 	 28.4417 	 5.7132 	 2.9300
  0.3600 	 1.4350 	 9.9119 	 9.4030 	 1.7180 	 58.5839 	 2.0283 	 52.9786 	 27.7831 	 5.6053 	 2.9300
  0.3600 	 1.4400 	 9.9157 	 9.4012 	 1.7137 	 58.5632 	 2.0263 	 53.0691 	 27.1135 	 5.4940 	 2.9300
  0.3600 	 1.4450 	 9.9195 	 9.3995 	 1.7094 	 58.5384 	 2.0242 	 53.1593 	 26.4320 	 5.3791 	 2.9300
  0.3600 	 1.4500 	 9.9232 	 9.3977 	 1.7052 	 58.5093 	 2.0223 	 53.2490 	 25.7375 	 5.2603 	 2.9300
  0.3600 	 1.4550 	 9.9269 	 9.3959 	 1.7009 	 58.4756 	 2.0203 	 53.3382 	 25.0290 	 5.1374 	 2.9300
  0.3600 	 1.4600 	 9.9306 	 9.3942 	 1.6967 	 58.4370 	 2.0183 	 53.4270 	 24.3051 	 5.0100 	 2.9300
  0.3600 	 1.4650 	 9.9342 	 9.3925 	 1.6926 	 58.3932 	 2.0164 	 53.5154 	 23.5644 	 4.8778 	 2.9300
  0.3600 	 1.4700 	 9.9378 	 9.3908 	 1.6884 	 58.3438 	 2.0145 	 53.6033 	 22.8052 	 4.7405 	 2.9300
  0.3600 	 1.4750 	 9.9414 	 9.3890 	 1.6843 	 58.2884 	 2.0126 	 53.6908 	 22.0255 	 4.5976 	 2.9300
  0.3600 	 1.4800 	 9.9450 	 9.3874 	 1.6802 	 58.2263 	 2.0107 	 53.7779 	 21.2229 	 4.4484 	 2.9300
  0.3600 	 1.4850 	 9.9486 	 9.3857 	 1.6761 	 58.1571 	 2.0089 	 53.8645 	 20.3949 	 4.2925 	 2.9300
  0.3600 	 1.4900 	 9.9521 	 9.3840 	 1.6721 	 58.0798 	 2.0070 	 53.9508 	 19.5379 	 4.1290 	 2.9300
  0.3600 	 1.4950 	 9.9556 	 9.3824 	 1.6681 	 57.9936 	 2.0052 	 54.0366 	 18.6481 	 3.9571 	 2.9300
  0.3600 	 1.5000 	 9.9591 	 9.3807 	 1.6641 	 57.8974 	 2.0034 	 54.1220 	 17.7203 	 3.7755 	 2.9300
  0.3600 	 1.5050 	 9.9625 	 9.3791 	 1.6601 	 57.7897 	 2.0016 	 54.2069 	 16.7482 	 3.5828 	 2.9300
  0.3600 	 1.5100 	 9.9660 	 9.3775 	 1.6561 	 57.6685 	 1.9998 	 54.2915 	 15.7235 	 3.3771 	 2.9300
  0.3600 	 1.5150 	 9.9694 	 9.3758 	 1.6522 	 57.5315 	 1.9980 	 54.3756 	 14.6350 	 3.1558 	 2.9300
  0.3600 	 1.5200 	 9.9728 	 9.3743 	 1.6483 	 57.3749 	 1.9963 	 54.4594 	 13.4673 	 2.9156 	 2.9300
  0.3600 	 1.5250 	 9.9761 	 9.3727 	 1.6445 	 57.1938 	 1.9946 	 54.5427 	 12.1976 	 2.6511 	 2.9300
  0.3600 	 1.5300 	 9.9795 	 9.3711 	 1.6406 	 56.9799 	 1.9928 	 54.6256 	 10.7896 	 2.3543 	 2.9300
  0.3600 	 1.5350 	 9.9828 	 9.3695 	 1.6368 	 56.7191 	 1.9911 	 54.7082 	 9.1800 	 2.0109 	 2.9300
  0.3600 	 1.5400 	 9.9861 	 9.3680 	 1.6330 	 56.3814 	 1.9895 	 54.7903 	 7.2353 	 1.5911 	 2.9300
  0.3600 	 1.3700 	 9.8564 	 9.4457 	 1.7810 	 58.4751 	 2.0610 	 51.7054 	 35.6737 	 6.7697 	 2.9400
  0.3600 	 1.3750 	 9.8606 	 9.4437 	 1.7763 	 58.4946 	 2.0587 	 51.8022 	 35.1010 	 6.6924 	 2.9400
  0.3600 	 1.3800 	 9.8647 	 9.4417 	 1.7716 	 58.5116 	 2.0564 	 51.8985 	 34.5233 	 6.6131 	 2.9400
  0.3600 	 1.3850 	 9.8688 	 9.4397 	 1.7670 	 58.5259 	 2.0542 	 51.9943 	 33.9402 	 6.5317 	 2.9400
  0.3600 	 1.3900 	 9.8729 	 9.4378 	 1.7624 	 58.5376 	 2.0519 	 52.0896 	 33.3513 	 6.4481 	 2.9400
  0.3600 	 1.3950 	 9.8769 	 9.4358 	 1.7578 	 58.5465 	 2.0497 	 52.1844 	 32.7564 	 6.3622 	 2.9400
  0.3600 	 1.4000 	 9.8809 	 9.4339 	 1.7532 	 58.5526 	 2.0475 	 52.2787 	 32.1551 	 6.2739 	 2.9400
  0.3600 	 1.4050 	 9.8849 	 9.4320 	 1.7487 	 58.5558 	 2.0453 	 52.3726 	 31.5468 	 6.1832 	 2.9400
  0.3600 	 1.4100 	 9.8889 	 9.4301 	 1.7442 	 58.5559 	 2.0432 	 52.4660 	 30.9312 	 6.0899 	 2.9400
  0.3600 	 1.4150 	 9.8928 	 9.4282 	 1.7398 	 58.5529 	 2.0411 	 52.5590 	 30.3077 	 5.9939 	 2.9400
  0.3600 	 1.4200 	 9.8967 	 9.4264 	 1.7353 	 58.5466 	 2.0389 	 52.6514 	 29.6759 	 5.8951 	 2.9400
  0.3600 	 1.4250 	 9.9006 	 9.4245 	 1.7309 	 58.5369 	 2.0369 	 52.7434 	 29.0351 	 5.7934 	 2.9400
  0.3600 	 1.4300 	 9.9044 	 9.4227 	 1.7266 	 58.5236 	 2.0348 	 52.8350 	 28.3847 	 5.6886 	 2.9400
  0.3600 	 1.4350 	 9.9082 	 9.4209 	 1.7222 	 58.5066 	 2.0327 	 52.9261 	 27.7239 	 5.5805 	 2.9400
  0.3600 	 1.4400 	 9.9120 	 9.4191 	 1.7179 	 58.4857 	 2.0307 	 53.0168 	 27.0519 	 5.4690 	 2.9400
  0.3600 	 1.4450 	 9.9158 	 9.4173 	 1.7136 	 58.4607 	 2.0287 	 53.1070 	 26.3679 	 5.3537 	 2.9400
  0.3600 	 1.4500 	 9.9195 	 9.4155 	 1.7093 	 58.4314 	 2.0267 	 53.1967 	 25.6707 	 5.2346 	 2.9400
  0.3600 	 1.4550 	 9.9232 	 9.4137 	 1.7051 	 58.3974 	 2.0247 	 53.2860 	 24.9594 	 5.1113 	 2.9400
  0.3600 	 1.4600 	 9.9269 	 9.4120 	 1.7009 	 58.3585 	 2.0228 	 53.3749 	 24.2324 	 4.9836 	 2.9400
  0.3600 	 1.4650 	 9.9306 	 9.4102 	 1.6967 	 58.3143 	 2.0208 	 53.4633 	 23.4884 	 4.8510 	 2.9400
  0.3600 	 1.4700 	 9.9342 	 9.4085 	 1.6926 	 58.2645 	 2.0189 	 53.5513 	 22.7256 	 4.7132 	 2.9400
  0.3600 	 1.4750 	 9.9378 	 9.4068 	 1.6884 	 58.2086 	 2.0170 	 53.6389 	 21.9420 	 4.5697 	 2.9400
  0.3600 	 1.4800 	 9.9414 	 9.4051 	 1.6843 	 58.1460 	 2.0151 	 53.7261 	 21.1352 	 4.4200 	 2.9400
  0.3600 	 1.4850 	 9.9450 	 9.4034 	 1.6802 	 58.0761 	 2.0132 	 53.8128 	 20.3024 	 4.2634 	 2.9400
  0.3600 	 1.4900 	 9.9485 	 9.4017 	 1.6762 	 57.9981 	 2.0114 	 53.8991 	 19.4402 	 4.0991 	 2.9400
  0.3600 	 1.4950 	 9.9520 	 9.4001 	 1.6722 	 57.9111 	 2.0095 	 53.9849 	 18.5444 	 3.9262 	 2.9400
  0.3600 	 1.5000 	 9.9555 	 9.3984 	 1.6681 	 57.8138 	 2.0077 	 54.0704 	 17.6098 	 3.7435 	 2.9400
  0.3600 	 1.5050 	 9.9590 	 9.3968 	 1.6642 	 57.7049 	 2.0059 	 54.1554 	 16.6299 	 3.5494 	 2.9400
  0.3600 	 1.5100 	 9.9624 	 9.3951 	 1.6602 	 57.5822 	 2.0041 	 54.2401 	 15.5959 	 3.3421 	 2.9400
  0.3600 	 1.5150 	 9.9659 	 9.3935 	 1.6563 	 57.4432 	 2.0024 	 54.3243 	 14.4964 	 3.1189 	 2.9400
  0.3600 	 1.5200 	 9.9693 	 9.3919 	 1.6524 	 57.2842 	 2.0006 	 54.4081 	 13.3148 	 2.8761 	 2.9400
  0.3600 	 1.5250 	 9.9726 	 9.3903 	 1.6485 	 57.0997 	 1.9989 	 54.4915 	 12.0271 	 2.6082 	 2.9400
  0.3600 	 1.5300 	 9.9760 	 9.3887 	 1.6446 	 56.8810 	 1.9971 	 54.5745 	 10.5945 	 2.3065 	 2.9400
  0.3600 	 1.5350 	 9.9793 	 9.3872 	 1.6408 	 56.6126 	 1.9954 	 54.6571 	 8.9474 	 1.9556 	 2.9400
  0.3600 	 1.5400 	 9.9827 	 9.3856 	 1.6369 	 56.2608 	 1.9937 	 54.7393 	 6.9346 	 1.5215 	 2.9400
  0.3600 	 1.3700 	 9.8525 	 9.4636 	 1.7854 	 58.3992 	 2.0656 	 51.6523 	 35.6369 	 6.7469 	 2.9500
  0.3600 	 1.3750 	 9.8567 	 9.4616 	 1.7807 	 58.4186 	 2.0633 	 51.7491 	 35.0629 	 6.6695 	 2.9500
  0.3600 	 1.3800 	 9.8608 	 9.4596 	 1.7760 	 58.4356 	 2.0610 	 51.8454 	 34.4838 	 6.5901 	 2.9500
  0.3600 	 1.3850 	 9.8650 	 9.4576 	 1.7713 	 58.4499 	 2.0587 	 51.9413 	 33.8993 	 6.5086 	 2.9500
  0.3600 	 1.3900 	 9.8690 	 9.4557 	 1.7667 	 58.4615 	 2.0565 	 52.0366 	 33.3089 	 6.4249 	 2.9500
  0.3600 	 1.3950 	 9.8731 	 9.4537 	 1.7621 	 58.4704 	 2.0542 	 52.1315 	 32.7125 	 6.3389 	 2.9500
  0.3600 	 1.4000 	 9.8771 	 9.4518 	 1.7576 	 58.4764 	 2.0520 	 52.2259 	 32.1095 	 6.2505 	 2.9500
  0.3600 	 1.4050 	 9.8811 	 9.4499 	 1.7530 	 58.4795 	 2.0499 	 52.3199 	 31.4995 	 6.1596 	 2.9500
  0.3600 	 1.4100 	 9.8851 	 9.4480 	 1.7485 	 58.4795 	 2.0477 	 52.4134 	 30.8821 	 6.0662 	 2.9500
  0.3600 	 1.4150 	 9.8890 	 9.4461 	 1.7441 	 58.4764 	 2.0456 	 52.5064 	 30.2569 	 5.9700 	 2.9500
  0.3600 	 1.4200 	 9.8929 	 9.4442 	 1.7396 	 58.4700 	 2.0434 	 52.5989 	 29.6231 	 5.8711 	 2.9500
  0.3600 	 1.4250 	 9.8968 	 9.4424 	 1.7352 	 58.4602 	 2.0413 	 52.6910 	 28.9803 	 5.7692 	 2.9500
  0.3600 	 1.4300 	 9.9007 	 9.4405 	 1.7308 	 58.4467 	 2.0392 	 52.7826 	 28.3277 	 5.6641 	 2.9500
  0.3600 	 1.4350 	 9.9045 	 9.4387 	 1.7264 	 58.4296 	 2.0372 	 52.8738 	 27.6647 	 5.5558 	 2.9500
  0.3600 	 1.4400 	 9.9083 	 9.4369 	 1.7221 	 58.4085 	 2.0351 	 52.9645 	 26.9903 	 5.4440 	 2.9500
  0.3600 	 1.4450 	 9.9121 	 9.4351 	 1.7178 	 58.3833 	 2.0331 	 53.0548 	 26.3038 	 5.3285 	 2.9500
  0.3600 	 1.4500 	 9.9158 	 9.4333 	 1.7135 	 58.3537 	 2.0311 	 53.1446 	 25.6039 	 5.2091 	 2.9500
  0.3600 	 1.4550 	 9.9196 	 9.4315 	 1.7093 	 58.3194 	 2.0291 	 53.2340 	 24.8897 	 5.0855 	 2.9500
  0.3600 	 1.4600 	 9.9233 	 9.4298 	 1.7051 	 58.2802 	 2.0272 	 53.3229 	 24.1596 	 4.9573 	 2.9500
  0.3600 	 1.4650 	 9.9269 	 9.4280 	 1.7009 	 58.2357 	 2.0252 	 53.4114 	 23.4123 	 4.8243 	 2.9500
  0.3600 	 1.4700 	 9.9306 	 9.4263 	 1.6967 	 58.1855 	 2.0233 	 53.4995 	 22.6459 	 4.6860 	 2.9500
  0.3600 	 1.4750 	 9.9342 	 9.4245 	 1.6926 	 58.1291 	 2.0214 	 53.5871 	 21.8583 	 4.5420 	 2.9500
  0.3600 	 1.4800 	 9.9378 	 9.4228 	 1.6884 	 58.0660 	 2.0195 	 53.6743 	 21.0472 	 4.3916 	 2.9500
  0.3600 	 1.4850 	 9.9414 	 9.4211 	 1.6843 	 57.9954 	 2.0176 	 53.7611 	 20.2096 	 4.2343 	 2.9500
  0.3600 	 1.4900 	 9.9449 	 9.4194 	 1.6803 	 57.9167 	 2.0157 	 53.8475 	 19.3421 	 4.0692 	 2.9500
  0.3600 	 1.4950 	 9.9485 	 9.4178 	 1.6762 	 57.8288 	 2.0139 	 53.9334 	 18.4403 	 3.8953 	 2.9500
  0.3600 	 1.5000 	 9.9520 	 9.4161 	 1.6722 	 57.7305 	 2.0121 	 54.0189 	 17.4989 	 3.7115 	 2.9500
  0.3600 	 1.5050 	 9.9555 	 9.4145 	 1.6682 	 57.6202 	 2.0102 	 54.1041 	 16.5110 	 3.5161 	 2.9500
  0.3600 	 1.5100 	 9.9589 	 9.4128 	 1.6643 	 57.4959 	 2.0084 	 54.1887 	 15.4676 	 3.3072 	 2.9500
  0.3600 	 1.5150 	 9.9624 	 9.4112 	 1.6603 	 57.3550 	 2.0067 	 54.2730 	 14.3567 	 3.0819 	 2.9500
  0.3600 	 1.5200 	 9.9658 	 9.4096 	 1.6564 	 57.1934 	 2.0049 	 54.3569 	 13.1609 	 2.8365 	 2.9500
  0.3600 	 1.5250 	 9.9692 	 9.4080 	 1.6525 	 57.0054 	 2.0032 	 54.4404 	 11.8546 	 2.5650 	 2.9500
  0.3600 	 1.5300 	 9.9725 	 9.4064 	 1.6486 	 56.7817 	 2.0014 	 54.5234 	 10.3961 	 2.2583 	 2.9500
  0.3600 	 1.5350 	 9.9759 	 9.4048 	 1.6448 	 56.5053 	 1.9997 	 54.6061 	 8.7090 	 1.8992 	 2.9500
  0.3600 	 1.5400 	 9.9792 	 9.4032 	 1.6409 	 56.1379 	 1.9980 	 54.6884 	 6.6209 	 1.4495 	 2.9500
  0.3600 	 1.3700 	 9.8486 	 9.4816 	 1.7898 	 58.3234 	 2.0702 	 51.5992 	 35.6002 	 6.7242 	 2.9600
  0.3600 	 1.3750 	 9.8528 	 9.4795 	 1.7850 	 58.3429 	 2.0679 	 51.6961 	 35.0249 	 6.6468 	 2.9600
  0.3600 	 1.3800 	 9.8570 	 9.4775 	 1.7803 	 58.3598 	 2.0655 	 51.7925 	 34.4444 	 6.5673 	 2.9600
  0.3600 	 1.3850 	 9.8611 	 9.4755 	 1.7757 	 58.3741 	 2.0633 	 51.8884 	 33.8584 	 6.4856 	 2.9600
  0.3600 	 1.3900 	 9.8652 	 9.4736 	 1.7710 	 58.3857 	 2.0610 	 51.9839 	 33.2665 	 6.4018 	 2.9600
  0.3600 	 1.3950 	 9.8693 	 9.4716 	 1.7664 	 58.3945 	 2.0588 	 52.0788 	 32.6685 	 6.3157 	 2.9600
  0.3600 	 1.4000 	 9.8733 	 9.4697 	 1.7619 	 58.4005 	 2.0566 	 52.1733 	 32.0639 	 6.2272 	 2.9600
  0.3600 	 1.4050 	 9.8773 	 9.4678 	 1.7573 	 58.4035 	 2.0544 	 52.2673 	 31.4522 	 6.1362 	 2.9600
  0.3600 	 1.4100 	 9.8813 	 9.4658 	 1.7528 	 58.4034 	 2.0522 	 52.3608 	 30.8331 	 6.0426 	 2.9600
  0.3600 	 1.4150 	 9.8853 	 9.4639 	 1.7483 	 58.4002 	 2.0500 	 52.4539 	 30.2060 	 5.9463 	 2.9600
  0.3600 	 1.4200 	 9.8892 	 9.4621 	 1.7439 	 58.3937 	 2.0479 	 52.5465 	 29.5703 	 5.8471 	 2.9600
  0.3600 	 1.4250 	 9.8931 	 9.4602 	 1.7394 	 58.3837 	 2.0458 	 52.6387 	 28.9254 	 5.7450 	 2.9600
  0.3600 	 1.4300 	 9.8969 	 9.4583 	 1.7350 	 58.3701 	 2.0437 	 52.7304 	 28.2707 	 5.6398 	 2.9600
  0.3600 	 1.4350 	 9.9008 	 9.4565 	 1.7307 	 58.3528 	 2.0416 	 52.8216 	 27.6054 	 5.5312 	 2.9600
  0.3600 	 1.4400 	 9.9046 	 9.4547 	 1.7263 	 58.3316 	 2.0396 	 52.9124 	 26.9287 	 5.4192 	 2.9600
  0.3600 	 1.4450 	 9.9084 	 9.4529 	 1.7220 	 58.3061 	 2.0375 	 53.0027 	 26.2396 	 5.3034 	 2.9600
  0.3600 	 1.4500 	 9.9122 	 9.4511 	 1.7177 	 58.2763 	 2.0355 	 53.0926 	 25.5371 	 5.1837 	 2.9600
  0.3600 	 1.4550 	 9.9159 	 9.4493 	 1.7135 	 58.2417 	 2.0335 	 53.1821 	 24.8199 	 5.0597 	 2.9600
  0.3600 	 1.4600 	 9.9196 	 9.4475 	 1.7092 	 58.2022 	 2.0316 	 53.2711 	 24.0868 	 4.9311 	 2.9600
  0.3600 	 1.4650 	 9.9233 	 9.4457 	 1.7050 	 58.1573 	 2.0296 	 53.3596 	 23.3361 	 4.7977 	 2.9600
  0.3600 	 1.4700 	 9.9270 	 9.4440 	 1.7008 	 58.1067 	 2.0277 	 53.4478 	 22.5660 	 4.6589 	 2.9600
  0.3600 	 1.4750 	 9.9306 	 9.4423 	 1.6967 	 58.0498 	 2.0257 	 53.5355 	 21.7745 	 4.5143 	 2.9600
  0.3600 	 1.4800 	 9.9342 	 9.4405 	 1.6926 	 57.9861 	 2.0238 	 53.6228 	 20.9590 	 4.3634 	 2.9600
  0.3600 	 1.4850 	 9.9378 	 9.4388 	 1.6885 	 57.9149 	 2.0219 	 53.7096 	 20.1166 	 4.2053 	 2.9600
  0.3600 	 1.4900 	 9.9414 	 9.4371 	 1.6844 	 57.8354 	 2.0201 	 53.7960 	 19.2437 	 4.0394 	 2.9600
  0.3600 	 1.4950 	 9.9449 	 9.4355 	 1.6803 	 57.7466 	 2.0182 	 53.8820 	 18.3358 	 3.8646 	 2.9600
  0.3600 	 1.5000 	 9.9484 	 9.4338 	 1.6763 	 57.6472 	 2.0164 	 53.9676 	 17.3874 	 3.6796 	 2.9600
  0.3600 	 1.5050 	 9.9519 	 9.4321 	 1.6723 	 57.5357 	 2.0146 	 54.0528 	 16.3914 	 3.4829 	 2.9600
  0.3600 	 1.5100 	 9.9554 	 9.4305 	 1.6683 	 57.4098 	 2.0128 	 54.1376 	 15.3385 	 3.2722 	 2.9600
  0.3600 	 1.5150 	 9.9588 	 9.4288 	 1.6644 	 57.2668 	 2.0110 	 54.2219 	 14.2159 	 3.0449 	 2.9600
  0.3600 	 1.5200 	 9.9623 	 9.4272 	 1.6604 	 57.1026 	 2.0092 	 54.3059 	 13.0055 	 2.7967 	 2.9600
  0.3600 	 1.5250 	 9.9657 	 9.4256 	 1.6565 	 56.9110 	 2.0075 	 54.3894 	 11.6799 	 2.5216 	 2.9600
  0.3600 	 1.5300 	 9.9690 	 9.4240 	 1.6526 	 56.6821 	 2.0057 	 54.4725 	 10.1942 	 2.2095 	 2.9600
  0.3600 	 1.5350 	 9.9724 	 9.4224 	 1.6488 	 56.3971 	 2.0040 	 54.5553 	 8.4645 	 1.8418 	 2.9600
  0.3600 	 1.5400 	 9.9757 	 9.4208 	 1.6449 	 56.0121 	 2.0023 	 54.6376 	 6.2923 	 1.3745 	 2.9600
  0.3600 	 1.3700 	 9.8447 	 9.4995 	 1.7942 	 58.2480 	 2.0748 	 51.5463 	 35.5635 	 6.7017 	 2.9700
  0.3600 	 1.3750 	 9.8489 	 9.4974 	 1.7894 	 58.2674 	 2.0724 	 51.6433 	 34.9868 	 6.6241 	 2.9700
  0.3600 	 1.3800 	 9.8531 	 9.4954 	 1.7847 	 58.2843 	 2.0701 	 51.7397 	 34.4049 	 6.5445 	 2.9700
  0.3600 	 1.3850 	 9.8573 	 9.4934 	 1.7800 	 58.2985 	 2.0678 	 51.8357 	 33.8175 	 6.4628 	 2.9700
  0.3600 	 1.3900 	 9.8614 	 9.4915 	 1.7754 	 58.3101 	 2.0655 	 51.9312 	 33.2241 	 6.3789 	 2.9700
  0.3600 	 1.3950 	 9.8655 	 9.4895 	 1.7708 	 58.3188 	 2.0633 	 52.0262 	 32.6246 	 6.2926 	 2.9700
  0.3600 	 1.4000 	 9.8695 	 9.4875 	 1.7662 	 58.3247 	 2.0611 	 52.1208 	 32.0183 	 6.2040 	 2.9700
  0.3600 	 1.4050 	 9.8735 	 9.4856 	 1.7616 	 58.3277 	 2.0589 	 52.2148 	 31.4050 	 6.1128 	 2.9700
  0.3600 	 1.4100 	 9.8775 	 9.4837 	 1.7571 	 58.3275 	 2.0567 	 52.3084 	 30.7841 	 6.0191 	 2.9700
  0.3600 	 1.4150 	 9.8815 	 9.4818 	 1.7526 	 58.3242 	 2.0545 	 52.4016 	 30.1551 	 5.9226 	 2.9700
  0.3600 	 1.4200 	 9.8854 	 9.4799 	 1.7481 	 58.3176 	 2.0524 	 52.4943 	 29.5175 	 5.8233 	 2.9700
  0.3600 	 1.4250 	 9.8893 	 9.4780 	 1.7437 	 58.3075 	 2.0503 	 52.5865 	 28.8706 	 5.7210 	 2.9700
  0.3600 	 1.4300 	 9.8932 	 9.4761 	 1.7393 	 58.2938 	 2.0482 	 52.6782 	 28.2137 	 5.6156 	 2.9700
  0.3600 	 1.4350 	 9.8971 	 9.4743 	 1.7349 	 58.2763 	 2.0461 	 52.7695 	 27.5462 	 5.5068 	 2.9700
  0.3600 	 1.4400 	 9.9009 	 9.4724 	 1.7305 	 58.2548 	 2.0440 	 52.8604 	 26.8671 	 5.3945 	 2.9700
  0.3600 	 1.4450 	 9.9047 	 9.4706 	 1.7262 	 58.2292 	 2.0420 	 52.9508 	 26.1754 	 5.2784 	 2.9700
  0.3600 	 1.4500 	 9.9085 	 9.4688 	 1.7219 	 58.1991 	 2.0400 	 53.0407 	 25.4701 	 5.1583 	 2.9700
  0.3600 	 1.4550 	 9.9122 	 9.4670 	 1.7176 	 58.1643 	 2.0379 	 53.1303 	 24.7501 	 5.0340 	 2.9700
  0.3600 	 1.4600 	 9.9160 	 9.4652 	 1.7134 	 58.1244 	 2.0360 	 53.2193 	 24.0138 	 4.9051 	 2.9700
  0.3600 	 1.4650 	 9.9197 	 9.4635 	 1.7092 	 58.0792 	 2.0340 	 53.3080 	 23.2598 	 4.7712 	 2.9700
  0.3600 	 1.4700 	 9.9233 	 9.4617 	 1.7050 	 58.0281 	 2.0320 	 53.3962 	 22.4861 	 4.6319 	 2.9700
  0.3600 	 1.4750 	 9.9270 	 9.4600 	 1.7008 	 57.9707 	 2.0301 	 53.4840 	 21.6905 	 4.4868 	 2.9700
  0.3600 	 1.4800 	 9.9306 	 9.4582 	 1.6967 	 57.9065 	 2.0282 	 53.5713 	 20.8707 	 4.3352 	 2.9700
  0.3600 	 1.4850 	 9.9342 	 9.4565 	 1.6926 	 57.8346 	 2.0263 	 53.6582 	 20.0234 	 4.1764 	 2.9700
  0.3600 	 1.4900 	 9.9378 	 9.4548 	 1.6885 	 57.7544 	 2.0244 	 53.7447 	 19.1450 	 4.0097 	 2.9700
  0.3600 	 1.4950 	 9.9413 	 9.4531 	 1.6844 	 57.6647 	 2.0226 	 53.8308 	 18.2310 	 3.8339 	 2.9700
  0.3600 	 1.5000 	 9.9449 	 9.4514 	 1.6804 	 57.5642 	 2.0207 	 53.9164 	 17.2755 	 3.6477 	 2.9700
  0.3600 	 1.5050 	 9.9484 	 9.4498 	 1.6763 	 57.4513 	 2.0189 	 54.0017 	 16.2713 	 3.4496 	 2.9700
  0.3600 	 1.5100 	 9.9519 	 9.4481 	 1.6724 	 57.3238 	 2.0171 	 54.0865 	 15.2085 	 3.2373 	 2.9700
  0.3600 	 1.5150 	 9.9553 	 9.4465 	 1.6684 	 57.1787 	 2.0153 	 54.1709 	 14.0740 	 3.0078 	 2.9700
  0.3600 	 1.5200 	 9.9588 	 9.4448 	 1.6644 	 57.0117 	 2.0135 	 54.2549 	 12.8485 	 2.7568 	 2.9700
  0.3600 	 1.5250 	 9.9622 	 9.4432 	 1.6605 	 56.8164 	 2.0117 	 54.3386 	 11.5029 	 2.4779 	 2.9700
  0.3600 	 1.5300 	 9.9656 	 9.4416 	 1.6566 	 56.5819 	 2.0100 	 54.4218 	 9.9887 	 2.1602 	 2.9700
  0.3600 	 1.5350 	 9.9689 	 9.4400 	 1.6528 	 56.2877 	 2.0083 	 54.5046 	 8.2132 	 1.7831 	 2.9700
  0.3600 	 1.5400 	 9.9723 	 9.4384 	 1.6489 	 55.8830 	 2.0065 	 54.5870 	 5.9463 	 1.2960 	 2.9700
  0.3600 	 1.3700 	 9.8409 	 9.5174 	 1.7986 	 58.1727 	 2.0793 	 51.4935 	 35.5269 	 6.6792 	 2.9800
  0.3600 	 1.3750 	 9.8451 	 9.5153 	 1.7938 	 58.1921 	 2.0770 	 51.5905 	 34.9488 	 6.6016 	 2.9800
  0.3600 	 1.3800 	 9.8493 	 9.5133 	 1.7891 	 58.2090 	 2.0747 	 51.6871 	 34.3655 	 6.5219 	 2.9800
  0.3600 	 1.3850 	 9.8534 	 9.5113 	 1.7844 	 58.2232 	 2.0724 	 51.7831 	 33.7766 	 6.4401 	 2.9800
  0.3600 	 1.3900 	 9.8575 	 9.5093 	 1.7797 	 58.2347 	 2.0701 	 51.8787 	 33.1818 	 6.3561 	 2.9800
  0.3600 	 1.3950 	 9.8616 	 9.5073 	 1.7751 	 58.2434 	 2.0678 	 51.9738 	 32.5806 	 6.2697 	 2.9800
  0.3600 	 1.4000 	 9.8657 	 9.5054 	 1.7705 	 58.2493 	 2.0656 	 52.0684 	 31.9727 	 6.1809 	 2.9800
  0.3600 	 1.4050 	 9.8697 	 9.5034 	 1.7659 	 58.2522 	 2.0634 	 52.1625 	 31.3577 	 6.0896 	 2.9800
  0.3600 	 1.4100 	 9.8737 	 9.5015 	 1.7614 	 58.2519 	 2.0612 	 52.2562 	 30.7351 	 5.9958 	 2.9800
  0.3600 	 1.4150 	 9.8777 	 9.4996 	 1.7569 	 58.2485 	 2.0590 	 52.3494 	 30.1042 	 5.8991 	 2.9800
  0.3600 	 1.4200 	 9.8817 	 9.4977 	 1.7524 	 58.2418 	 2.0569 	 52.4421 	 29.4647 	 5.7996 	 2.9800
  0.3600 	 1.4250 	 9.8856 	 9.4958 	 1.7479 	 58.2315 	 2.0547 	 52.5344 	 28.8157 	 5.6971 	 2.9800
  0.3600 	 1.4300 	 9.8895 	 9.4939 	 1.7435 	 58.2177 	 2.0526 	 52.6262 	 28.1567 	 5.5915 	 2.9800
  0.3600 	 1.4350 	 9.8934 	 9.4920 	 1.7391 	 58.2000 	 2.0505 	 52.7176 	 27.4869 	 5.4824 	 2.9800
  0.3600 	 1.4400 	 9.8972 	 9.4902 	 1.7348 	 58.1784 	 2.0485 	 52.8085 	 26.8054 	 5.3699 	 2.9800
  0.3600 	 1.4450 	 9.9010 	 9.4884 	 1.7304 	 58.1525 	 2.0464 	 52.8990 	 26.1112 	 5.2535 	 2.9800
  0.3600 	 1.4500 	 9.9048 	 9.4865 	 1.7261 	 58.1222 	 2.0444 	 52.9890 	 25.4032 	 5.1331 	 2.9800
  0.3600 	 1.4550 	 9.9086 	 9.4847 	 1.7218 	 58.0870 	 2.0424 	 53.0786 	 24.6802 	 5.0085 	 2.9800
  0.3600 	 1.4600 	 9.9123 	 9.4829 	 1.7176 	 58.0469 	 2.0404 	 53.1677 	 23.9408 	 4.8791 	 2.9800
  0.3600 	 1.4650 	 9.9160 	 9.4812 	 1.7133 	 58.0013 	 2.0384 	 53.2564 	 23.1833 	 4.7448 	 2.9800
  0.3600 	 1.4700 	 9.9197 	 9.4794 	 1.7091 	 57.9498 	 2.0364 	 53.3447 	 22.4060 	 4.6051 	 2.9800
  0.3600 	 1.4750 	 9.9234 	 9.4776 	 1.7049 	 57.8919 	 2.0345 	 53.4326 	 21.6064 	 4.4594 	 2.9800
  0.3600 	 1.4800 	 9.9270 	 9.4759 	 1.7008 	 57.8271 	 2.0326 	 53.5200 	 20.7821 	 4.3071 	 2.9800
  0.3600 	 1.4850 	 9.9306 	 9.4742 	 1.6967 	 57.7546 	 2.0307 	 53.6069 	 19.9299 	 4.1476 	 2.9800
  0.3600 	 1.4900 	 9.9342 	 9.4725 	 1.6926 	 57.6735 	 2.0288 	 53.6935 	 19.0460 	 3.9800 	 2.9800
  0.3600 	 1.4950 	 9.9378 	 9.4707 	 1.6885 	 57.5829 	 2.0269 	 53.7797 	 18.1257 	 3.8032 	 2.9800
  0.3600 	 1.5000 	 9.9413 	 9.4691 	 1.6844 	 57.4813 	 2.0250 	 53.8654 	 17.1631 	 3.6159 	 2.9800
  0.3600 	 1.5050 	 9.9448 	 9.4674 	 1.6804 	 57.3671 	 2.0232 	 53.9507 	 16.1505 	 3.4164 	 2.9800
  0.3600 	 1.5100 	 9.9483 	 9.4657 	 1.6764 	 57.2379 	 2.0214 	 54.0356 	 15.0777 	 3.2023 	 2.9800
  0.3600 	 1.5150 	 9.9518 	 9.4641 	 1.6724 	 57.0907 	 2.0196 	 54.1201 	 13.9309 	 2.9706 	 2.9800
  0.3600 	 1.5200 	 9.9552 	 9.4624 	 1.6685 	 56.9209 	 2.0178 	 54.2041 	 12.6898 	 2.7167 	 2.9800
  0.3600 	 1.5250 	 9.9587 	 9.4608 	 1.6645 	 56.7216 	 2.0160 	 54.2878 	 11.3235 	 2.4338 	 2.9800
  0.3600 	 1.5300 	 9.9621 	 9.4592 	 1.6606 	 56.4813 	 2.0143 	 54.3711 	 9.7794 	 2.1102 	 2.9800
  0.3600 	 1.5350 	 9.9655 	 9.4576 	 1.6567 	 56.1771 	 2.0125 	 54.4540 	 7.9545 	 1.7232 	 2.9800
  0.3600 	 1.5400 	 9.9688 	 9.4560 	 1.6529 	 55.7499 	 2.0108 	 54.5364 	 5.5797 	 1.2134 	 2.9800
  0.3600 	 1.3700 	 9.8370 	 9.5353 	 1.8029 	 58.0978 	 2.0839 	 51.4409 	 35.4902 	 6.6569 	 2.9900
  0.3600 	 1.3750 	 9.8412 	 9.5332 	 1.7982 	 58.1172 	 2.0815 	 51.5379 	 34.9108 	 6.5792 	 2.9900
  0.3600 	 1.3800 	 9.8454 	 9.5312 	 1.7934 	 58.1340 	 2.0792 	 51.6345 	 34.3261 	 6.4994 	 2.9900
  0.3600 	 1.3850 	 9.8496 	 9.5291 	 1.7887 	 58.1482 	 2.0769 	 51.7306 	 33.7358 	 6.4175 	 2.9900
  0.3600 	 1.3900 	 9.8537 	 9.5271 	 1.7841 	 58.1596 	 2.0746 	 51.8263 	 33.1394 	 6.3334 	 2.9900
  0.3600 	 1.3950 	 9.8578 	 9.5252 	 1.7794 	 58.1683 	 2.0723 	 51.9214 	 32.5367 	 6.2469 	 2.9900
  0.3600 	 1.4000 	 9.8619 	 9.5232 	 1.7748 	 58.1741 	 2.0701 	 52.0161 	 31.9272 	 6.1580 	 2.9900
  0.3600 	 1.4050 	 9.8659 	 9.5212 	 1.7702 	 58.1769 	 2.0679 	 52.1103 	 31.3105 	 6.0666 	 2.9900
  0.3600 	 1.4100 	 9.8700 	 9.5193 	 1.7657 	 58.1766 	 2.0657 	 52.2040 	 30.6860 	 5.9725 	 2.9900
  0.3600 	 1.4150 	 9.8740 	 9.5173 	 1.7611 	 58.1731 	 2.0635 	 52.2973 	 30.0534 	 5.8757 	 2.9900
  0.3600 	 1.4200 	 9.8779 	 9.5154 	 1.7566 	 58.1662 	 2.0613 	 52.3901 	 29.4119 	 5.7761 	 2.9900
  0.3600 	 1.4250 	 9.8819 	 9.5135 	 1.7522 	 58.1558 	 2.0592 	 52.4825 	 28.7609 	 5.6734 	 2.9900
  0.3600 	 1.4300 	 9.8858 	 9.5116 	 1.7477 	 58.1418 	 2.0571 	 52.5744 	 28.0997 	 5.5675 	 2.9900
  0.3600 	 1.4350 	 9.8896 	 9.5098 	 1.7433 	 58.1240 	 2.0550 	 52.6658 	 27.4276 	 5.4582 	 2.9900
  0.3600 	 1.4400 	 9.8935 	 9.5079 	 1.7390 	 58.1022 	 2.0529 	 52.7568 	 26.7437 	 5.3454 	 2.9900
  0.3600 	 1.4450 	 9.8973 	 9.5061 	 1.7346 	 58.0761 	 2.0508 	 52.8473 	 26.0469 	 5.2287 	 2.9900
  0.3600 	 1.4500 	 9.9011 	 9.5042 	 1.7303 	 58.0455 	 2.0488 	 52.9374 	 25.3362 	 5.1081 	 2.9900
  0.3600 	 1.4550 	 9.9049 	 9.5024 	 1.7260 	 58.0101 	 2.0468 	 53.0270 	 24.6103 	 4.9830 	 2.9900
  0.3600 	 1.4600 	 9.9087 	 9.5006 	 1.7217 	 57.9696 	 2.0448 	 53.1163 	 23.8677 	 4.8533 	 2.9900
  0.3600 	 1.4650 	 9.9124 	 9.4988 	 1.7175 	 57.9236 	 2.0428 	 53.2050 	 23.1068 	 4.7185 	 2.9900
  0.3600 	 1.4700 	 9.9161 	 9.4971 	 1.7133 	 57.8716 	 2.0408 	 53.2934 	 22.3257 	 4.5783 	 2.9900
  0.3600 	 1.4750 	 9.9198 	 9.4953 	 1.7091 	 57.8133 	 2.0389 	 53.3813 	 21.5221 	 4.4320 	 2.9900
  0.3600 	 1.4800 	 9.9234 	 9.4935 	 1.7049 	 57.7479 	 2.0369 	 53.4688 	 20.6934 	 4.2791 	 2.9900
  0.3600 	 1.4850 	 9.9270 	 9.4918 	 1.7008 	 57.6747 	 2.0350 	 53.5558 	 19.8362 	 4.1189 	 2.9900
  0.3600 	 1.4900 	 9.9306 	 9.4901 	 1.6966 	 57.5929 	 2.0331 	 53.6424 	 18.9467 	 3.9504 	 2.9900
  0.3600 	 1.4950 	 9.9342 	 9.4884 	 1.6926 	 57.5013 	 2.0312 	 53.7286 	 18.0201 	 3.7726 	 2.9900
  0.3600 	 1.5000 	 9.9378 	 9.4867 	 1.6885 	 57.3986 	 2.0294 	 53.8144 	 17.0502 	 3.5841 	 2.9900
  0.3600 	 1.5050 	 9.9413 	 9.4850 	 1.6845 	 57.2830 	 2.0275 	 53.8998 	 16.0290 	 3.3832 	 2.9900
  0.3600 	 1.5100 	 9.9448 	 9.4833 	 1.6804 	 57.1521 	 2.0257 	 53.9848 	 14.9460 	 3.1673 	 2.9900
  0.3600 	 1.5150 	 9.9483 	 9.4816 	 1.6765 	 57.0026 	 2.0239 	 54.0693 	 13.7867 	 2.9333 	 2.9900
  0.3600 	 1.5200 	 9.9517 	 9.4800 	 1.6725 	 56.8300 	 2.0221 	 54.1535 	 12.5296 	 2.6765 	 2.9900
  0.3600 	 1.5250 	 9.9552 	 9.4783 	 1.6685 	 56.6267 	 2.0203 	 54.2372 	 11.1416 	 2.3894 	 2.9900
  0.3600 	 1.5300 	 9.9586 	 9.4767 	 1.6646 	 56.3802 	 2.0185 	 54.3205 	 9.5659 	 2.0596 	 2.9900
  0.3600 	 1.5350 	 9.9620 	 9.4751 	 1.6607 	 56.0652 	 2.0168 	 54.4035 	 7.6877 	 1.6617 	 2.9900
  0.3600 	 1.5400 	 9.9654 	 9.4735 	 1.6569 	 55.6118 	 2.0151 	 54.4860 	 5.1880 	 1.1258 	 2.9900
  0.3600 	 1.3700 	 9.8331 	 9.5531 	 1.8073 	 58.0230 	 2.0885 	 51.3883 	 35.4536 	 6.6347 	 3.0000
  0.3600 	 1.3750 	 9.8373 	 9.5511 	 1.8025 	 58.0424 	 2.0861 	 51.4855 	 34.8729 	 6.5569 	 3.0000
  0.3600 	 1.3800 	 9.8415 	 9.5490 	 1.7978 	 58.0592 	 2.0838 	 51.5821 	 34.2867 	 6.4771 	 3.0000
  0.3600 	 1.3850 	 9.8457 	 9.5470 	 1.7931 	 58.0734 	 2.0814 	 51.6783 	 33.6949 	 6.3950 	 3.0000
  0.3600 	 1.3900 	 9.8499 	 9.5450 	 1.7884 	 58.0848 	 2.0791 	 51.7740 	 33.0971 	 6.3108 	 3.0000
  0.3600 	 1.3950 	 9.8540 	 9.5430 	 1.7837 	 58.0934 	 2.0769 	 51.8692 	 32.4928 	 6.2242 	 3.0000
  0.3600 	 1.4000 	 9.8581 	 9.5410 	 1.7791 	 58.0991 	 2.0746 	 51.9640 	 31.8817 	 6.1352 	 3.0000
  0.3600 	 1.4050 	 9.8621 	 9.5390 	 1.7745 	 58.1018 	 2.0724 	 52.0582 	 31.2633 	 6.0436 	 3.0000
  0.3600 	 1.4100 	 9.8662 	 9.5370 	 1.7699 	 58.1015 	 2.0702 	 52.1520 	 30.6370 	 5.9494 	 3.0000
  0.3600 	 1.4150 	 9.8702 	 9.5351 	 1.7654 	 58.0978 	 2.0680 	 52.2454 	 30.0025 	 5.8525 	 3.0000
  0.3600 	 1.4200 	 9.8742 	 9.5332 	 1.7609 	 58.0909 	 2.0658 	 52.3382 	 29.3590 	 5.7526 	 3.0000
  0.3600 	 1.4250 	 9.8781 	 9.5313 	 1.7564 	 58.0804 	 2.0636 	 52.4307 	 28.7060 	 5.6497 	 3.0000
  0.3600 	 1.4300 	 9.8820 	 9.5294 	 1.7520 	 58.0662 	 2.0615 	 52.5226 	 28.0427 	 5.5436 	 3.0000
  0.3600 	 1.4350 	 9.8859 	 9.5275 	 1.7476 	 58.0482 	 2.0594 	 52.6141 	 27.3683 	 5.4341 	 3.0000
  0.3600 	 1.4400 	 9.8898 	 9.5256 	 1.7432 	 58.0262 	 2.0573 	 52.7052 	 26.6819 	 5.3210 	 3.0000
  0.3600 	 1.4450 	 9.8936 	 9.5238 	 1.7388 	 57.9999 	 2.0552 	 52.7958 	 25.9826 	 5.2041 	 3.0000
  0.3600 	 1.4500 	 9.8975 	 9.5219 	 1.7345 	 57.9690 	 2.0532 	 52.8859 	 25.2691 	 5.0831 	 3.0000
  0.3600 	 1.4550 	 9.9012 	 9.5201 	 1.7302 	 57.9333 	 2.0512 	 52.9756 	 24.5403 	 4.9577 	 3.0000
  0.3600 	 1.4600 	 9.9050 	 9.5183 	 1.7259 	 57.8925 	 2.0491 	 53.0649 	 23.7945 	 4.8276 	 3.0000
  0.3600 	 1.4650 	 9.9087 	 9.5165 	 1.7216 	 57.8461 	 2.0472 	 53.1537 	 23.0302 	 4.6924 	 3.0000
  0.3600 	 1.4700 	 9.9125 	 9.5147 	 1.7174 	 57.7938 	 2.0452 	 53.2421 	 22.2454 	 4.5516 	 3.0000
  0.3600 	 1.4750 	 9.9161 	 9.5129 	 1.7132 	 57.7349 	 2.0432 	 53.3301 	 21.4377 	 4.4048 	 3.0000
  0.3600 	 1.4800 	 9.9198 	 9.5112 	 1.7090 	 57.6689 	 2.0413 	 53.4177 	 20.6044 	 4.2512 	 3.0000
  0.3600 	 1.4850 	 9.9234 	 9.5094 	 1.7049 	 57.5950 	 2.0394 	 53.5048 	 19.7422 	 4.0903 	 3.0000
  0.3600 	 1.4900 	 9.9271 	 9.5077 	 1.7007 	 57.5124 	 2.0375 	 53.5915 	 18.8471 	 3.9209 	 3.0000
  0.3600 	 1.4950 	 9.9306 	 9.5060 	 1.6966 	 57.4199 	 2.0356 	 53.6777 	 17.9140 	 3.7421 	 3.0000
  0.3600 	 1.5000 	 9.9342 	 9.5043 	 1.6926 	 57.3160 	 2.0337 	 53.7636 	 16.9367 	 3.5524 	 3.0000
  0.3600 	 1.5050 	 9.9378 	 9.5026 	 1.6885 	 57.1990 	 2.0318 	 53.8490 	 15.9068 	 3.3499 	 3.0000
  0.3600 	 1.5100 	 9.9413 	 9.5009 	 1.6845 	 57.0663 	 2.0300 	 53.9341 	 14.8135 	 3.1323 	 3.0000
  0.3600 	 1.5150 	 9.9448 	 9.4992 	 1.6805 	 56.9147 	 2.0282 	 54.0187 	 13.6412 	 2.8960 	 3.0000
  0.3600 	 1.5200 	 9.9482 	 9.4975 	 1.6765 	 56.7390 	 2.0264 	 54.1029 	 12.3675 	 2.6361 	 3.0000
  0.3600 	 1.5250 	 9.9517 	 9.4959 	 1.6726 	 56.5314 	 2.0246 	 54.1867 	 10.9571 	 2.3447 	 3.0000
  0.3600 	 1.5300 	 9.9551 	 9.4943 	 1.6686 	 56.2784 	 2.0228 	 54.2701 	 9.3480 	 2.0083 	 3.0000
  0.3600 	 1.5350 	 9.9585 	 9.4926 	 1.6647 	 55.9517 	 2.0211 	 54.3531 	 7.4118 	 1.5986 	 3.0000
  0.3700 	 1.3800 	 9.8801 	 9.3697 	 1.7500 	 59.1580 	 2.0382 	 52.1120 	 35.4633 	 7.0460 	 2.9000
  0.3700 	 1.3850 	 9.8842 	 9.3678 	 1.7454 	 59.1761 	 2.0359 	 52.2076 	 34.9131 	 6.9686 	 2.9000
  0.3700 	 1.3900 	 9.8882 	 9.3659 	 1.7409 	 59.1918 	 2.0337 	 52.3026 	 34.3582 	 6.8892 	 2.9000
  0.3700 	 1.3950 	 9.8922 	 9.3640 	 1.7363 	 59.2049 	 2.0316 	 52.3971 	 33.7984 	 6.8077 	 2.9000
  0.3700 	 1.4000 	 9.8961 	 9.3621 	 1.7318 	 59.2154 	 2.0294 	 52.4912 	 33.2335 	 6.7241 	 2.9000
  0.3700 	 1.4050 	 9.9001 	 9.3603 	 1.7274 	 59.2232 	 2.0273 	 52.5848 	 32.6631 	 6.6384 	 2.9000
  0.3700 	 1.4100 	 9.9040 	 9.3584 	 1.7229 	 59.2283 	 2.0252 	 52.6780 	 32.0868 	 6.5504 	 2.9000
  0.3700 	 1.4150 	 9.9078 	 9.3566 	 1.7185 	 59.2306 	 2.0231 	 52.7706 	 31.5043 	 6.4600 	 2.9000
  0.3700 	 1.4200 	 9.9117 	 9.3548 	 1.7141 	 59.2299 	 2.0210 	 52.8628 	 30.9152 	 6.3671 	 2.9000
  0.3700 	 1.4250 	 9.9155 	 9.3530 	 1.7098 	 59.2263 	 2.0189 	 52.9546 	 30.3191 	 6.2717 	 2.9000
  0.3700 	 1.4300 	 9.9193 	 9.3512 	 1.7055 	 59.2195 	 2.0169 	 53.0459 	 29.7155 	 6.1736 	 2.9000
  0.3700 	 1.4350 	 9.9231 	 9.3494 	 1.7012 	 59.2094 	 2.0149 	 53.1367 	 29.1039 	 6.0727 	 2.9000
  0.3700 	 1.4400 	 9.9268 	 9.3476 	 1.6969 	 59.1960 	 2.0129 	 53.2271 	 28.4837 	 5.9689 	 2.9000
  0.3700 	 1.4450 	 9.9305 	 9.3459 	 1.6926 	 59.1790 	 2.0109 	 53.3170 	 27.8544 	 5.8620 	 2.9000
  0.3700 	 1.4500 	 9.9342 	 9.3442 	 1.6884 	 59.1583 	 2.0090 	 53.4065 	 27.2151 	 5.7518 	 2.9000
  0.3700 	 1.4550 	 9.9379 	 9.3424 	 1.6842 	 59.1338 	 2.0070 	 53.4955 	 26.5652 	 5.6382 	 2.9000
  0.3700 	 1.4600 	 9.9415 	 9.3407 	 1.6801 	 59.1051 	 2.0051 	 53.5841 	 25.9038 	 5.5210 	 2.9000
  0.3700 	 1.4650 	 9.9451 	 9.3390 	 1.6759 	 59.0721 	 2.0032 	 53.6723 	 25.2300 	 5.3998 	 2.9000
  0.3700 	 1.4700 	 9.9487 	 9.3373 	 1.6718 	 59.0346 	 2.0013 	 53.7600 	 24.5426 	 5.2746 	 2.9000
  0.3700 	 1.4750 	 9.9523 	 9.3357 	 1.6677 	 58.9922 	 1.9994 	 53.8473 	 23.8406 	 5.1449 	 2.9000
  0.3700 	 1.4800 	 9.9558 	 9.3340 	 1.6637 	 58.9445 	 1.9976 	 53.9342 	 23.1223 	 5.0104 	 2.9000
  0.3700 	 1.4850 	 9.9593 	 9.3323 	 1.6596 	 58.8913 	 1.9957 	 54.0206 	 22.3864 	 4.8707 	 2.9000
  0.3700 	 1.4900 	 9.9628 	 9.3307 	 1.6556 	 58.8321 	 1.9939 	 54.1066 	 21.6308 	 4.7254 	 2.9000
  0.3700 	 1.4950 	 9.9663 	 9.3291 	 1.6516 	 58.7663 	 1.9921 	 54.1922 	 20.8534 	 4.5740 	 2.9000
  0.3700 	 1.5000 	 9.9697 	 9.3275 	 1.6477 	 58.6933 	 1.9903 	 54.2774 	 20.0517 	 4.4159 	 2.9000
  0.3700 	 1.5050 	 9.9732 	 9.3258 	 1.6437 	 58.6123 	 1.9886 	 54.3622 	 19.2225 	 4.2501 	 2.9000
  0.3700 	 1.5100 	 9.9766 	 9.3243 	 1.6398 	 58.5225 	 1.9868 	 54.4465 	 18.3619 	 4.0760 	 2.9000
  0.3700 	 1.5150 	 9.9799 	 9.3227 	 1.6359 	 58.4228 	 1.9851 	 54.5305 	 17.4655 	 3.8923 	 2.9000
  0.3700 	 1.5200 	 9.9833 	 9.3211 	 1.6320 	 58.3117 	 1.9834 	 54.6140 	 16.5271 	 3.6977 	 2.9000
  0.3700 	 1.5250 	 9.9866 	 9.3195 	 1.6282 	 58.1874 	 1.9816 	 54.6971 	 15.5392 	 3.4903 	 2.9000
  0.3700 	 1.5300 	 9.9899 	 9.3180 	 1.6244 	 58.0474 	 1.9800 	 54.7798 	 14.4916 	 3.2676 	 2.9000
  0.3700 	 1.5350 	 9.9932 	 9.3165 	 1.6206 	 57.8885 	 1.9783 	 54.8622 	 13.3701 	 3.0264 	 2.9000
  0.3700 	 1.5400 	 9.9965 	 9.3149 	 1.6168 	 57.7058 	 1.9766 	 54.9441 	 12.1543 	 2.7618 	 2.9000
  0.3700 	 1.5450 	 9.9997 	 9.3134 	 1.6130 	 57.4918 	 1.9750 	 55.0256 	 10.8123 	 2.4662 	 2.9000
  0.3700 	 1.5500 	 10.0030 	 9.3119 	 1.6093 	 57.2336 	 1.9733 	 55.1068 	 9.2893 	 2.1269 	 2.9000
  0.3700 	 1.5550 	 10.0062 	 9.3104 	 1.6056 	 56.9056 	 1.9717 	 55.1875 	 7.4756 	 1.7181 	 2.9000
  0.3700 	 1.5600 	 10.0094 	 9.3089 	 1.6019 	 56.4370 	 1.9701 	 55.2679 	 5.0678 	 1.1691 	 2.9000
  0.3700 	 1.3750 	 9.8722 	 9.3897 	 1.7590 	 59.0600 	 2.0450 	 51.9624 	 35.9741 	 7.0976 	 2.9100
  0.3700 	 1.3800 	 9.8763 	 9.3878 	 1.7544 	 59.0805 	 2.0427 	 52.0584 	 35.4269 	 7.0220 	 2.9100
  0.3700 	 1.3850 	 9.8803 	 9.3858 	 1.7498 	 59.0985 	 2.0405 	 52.1540 	 34.8754 	 6.9445 	 2.9100
  0.3700 	 1.3900 	 9.8844 	 9.3839 	 1.7452 	 59.1141 	 2.0383 	 52.2491 	 34.3191 	 6.8650 	 2.9100
  0.3700 	 1.3950 	 9.8884 	 9.3820 	 1.7407 	 59.1272 	 2.0361 	 52.3438 	 33.7580 	 6.7835 	 2.9100
  0.3700 	 1.4000 	 9.8923 	 9.3801 	 1.7362 	 59.1377 	 2.0339 	 52.4379 	 33.1916 	 6.6998 	 2.9100
  0.3700 	 1.4050 	 9.8963 	 9.3782 	 1.7317 	 59.1455 	 2.0318 	 52.5316 	 32.6196 	 6.6139 	 2.9100
  0.3700 	 1.4100 	 9.9002 	 9.3764 	 1.7272 	 59.1505 	 2.0297 	 52.6248 	 32.0418 	 6.5257 	 2.9100
  0.3700 	 1.4150 	 9.9041 	 9.3745 	 1.7228 	 59.1527 	 2.0276 	 52.7175 	 31.4577 	 6.4352 	 2.9100
  0.3700 	 1.4200 	 9.9079 	 9.3727 	 1.7184 	 59.1520 	 2.0255 	 52.8098 	 30.8669 	 6.3422 	 2.9100
  0.3700 	 1.4250 	 9.9118 	 9.3709 	 1.7140 	 59.1482 	 2.0234 	 52.9016 	 30.2690 	 6.2466 	 2.9100
  0.3700 	 1.4300 	 9.9156 	 9.3691 	 1.7097 	 59.1413 	 2.0214 	 52.9930 	 29.6636 	 6.1484 	 2.9100
  0.3700 	 1.4350 	 9.9194 	 9.3673 	 1.7054 	 59.1312 	 2.0194 	 53.0839 	 29.0501 	 6.0473 	 2.9100
  0.3700 	 1.4400 	 9.9231 	 9.3655 	 1.7011 	 59.1176 	 2.0173 	 53.1743 	 28.4278 	 5.9433 	 2.9100
  0.3700 	 1.4450 	 9.9268 	 9.3638 	 1.6969 	 59.1004 	 2.0154 	 53.2643 	 27.7963 	 5.8361 	 2.9100
  0.3700 	 1.4500 	 9.9305 	 9.3620 	 1.6926 	 59.0796 	 2.0134 	 53.3538 	 27.1548 	 5.7257 	 2.9100
  0.3700 	 1.4550 	 9.9342 	 9.3603 	 1.6884 	 59.0548 	 2.0114 	 53.4430 	 26.5026 	 5.6118 	 2.9100
  0.3700 	 1.4600 	 9.9379 	 9.3586 	 1.6842 	 59.0259 	 2.0095 	 53.5316 	 25.8386 	 5.4943 	 2.9100
  0.3700 	 1.4650 	 9.9415 	 9.3569 	 1.6801 	 58.9927 	 2.0076 	 53.6199 	 25.1621 	 5.3728 	 2.9100
  0.3700 	 1.4700 	 9.9451 	 9.3552 	 1.6760 	 58.9548 	 2.0057 	 53.7077 	 24.4719 	 5.2472 	 2.9100
  0.3700 	 1.4750 	 9.9487 	 9.3535 	 1.6719 	 58.9121 	 2.0038 	 53.7950 	 23.7667 	 5.1171 	 2.9100
  0.3700 	 1.4800 	 9.9522 	 9.3518 	 1.6678 	 58.8641 	 2.0020 	 53.8820 	 23.0452 	 4.9821 	 2.9100
  0.3700 	 1.4850 	 9.9557 	 9.3501 	 1.6637 	 58.8104 	 2.0001 	 53.9685 	 22.3057 	 4.8420 	 2.9100
  0.3700 	 1.4900 	 9.9592 	 9.3485 	 1.6597 	 58.7507 	 1.9983 	 54.0546 	 21.5462 	 4.6961 	 2.9100
  0.3700 	 1.4950 	 9.9627 	 9.3469 	 1.6557 	 58.6843 	 1.9965 	 54.1402 	 20.7646 	 4.5441 	 2.9100
  0.3700 	 1.5000 	 9.9662 	 9.3452 	 1.6517 	 58.6106 	 1.9947 	 54.2255 	 19.9581 	 4.3852 	 2.9100
  0.3700 	 1.5050 	 9.9696 	 9.3436 	 1.6478 	 58.5289 	 1.9929 	 54.3103 	 19.1237 	 4.2186 	 2.9100
  0.3700 	 1.5100 	 9.9730 	 9.3420 	 1.6439 	 58.4382 	 1.9911 	 54.3947 	 18.2573 	 4.0435 	 2.9100
  0.3700 	 1.5150 	 9.9764 	 9.3404 	 1.6400 	 58.3374 	 1.9894 	 54.4787 	 17.3541 	 3.8587 	 2.9100
  0.3700 	 1.5200 	 9.9798 	 9.3388 	 1.6361 	 58.2250 	 1.9877 	 54.5623 	 16.4080 	 3.6627 	 2.9100
  0.3700 	 1.5250 	 9.9831 	 9.3373 	 1.6322 	 58.0991 	 1.9860 	 54.6455 	 15.4110 	 3.4536 	 2.9100
  0.3700 	 1.5300 	 9.9865 	 9.3357 	 1.6284 	 57.9572 	 1.9843 	 54.7283 	 14.3525 	 3.2289 	 2.9100
  0.3700 	 1.5350 	 9.9898 	 9.3342 	 1.6246 	 57.7958 	 1.9826 	 54.8107 	 13.2176 	 2.9851 	 2.9100
  0.3700 	 1.5400 	 9.9930 	 9.3326 	 1.6208 	 57.6097 	 1.9809 	 54.8927 	 11.9845 	 2.7170 	 2.9100
  0.3700 	 1.5450 	 9.9963 	 9.3311 	 1.6170 	 57.3909 	 1.9792 	 54.9743 	 10.6190 	 2.4166 	 2.9100
  0.3700 	 1.5500 	 9.9995 	 9.3296 	 1.6133 	 57.1255 	 1.9776 	 55.0555 	 9.0613 	 2.0700 	 2.9100
  0.3700 	 1.5550 	 10.0028 	 9.3281 	 1.6096 	 56.7844 	 1.9760 	 55.1363 	 7.1873 	 1.6481 	 2.9100
  0.3700 	 1.3750 	 9.8683 	 9.4077 	 1.7634 	 58.9827 	 2.0496 	 51.9088 	 35.9390 	 7.0738 	 2.9200
  0.3700 	 1.3800 	 9.8724 	 9.4058 	 1.7588 	 59.0032 	 2.0473 	 52.0050 	 35.3905 	 6.9982 	 2.9200
  0.3700 	 1.3850 	 9.8765 	 9.4038 	 1.7542 	 59.0212 	 2.0451 	 52.1006 	 34.8377 	 6.9206 	 2.9200
  0.3700 	 1.3900 	 9.8805 	 9.4019 	 1.7496 	 59.0368 	 2.0428 	 52.1958 	 34.2801 	 6.8410 	 2.9200
  0.3700 	 1.3950 	 9.8846 	 9.4000 	 1.7450 	 59.0498 	 2.0406 	 52.2905 	 33.7175 	 6.7593 	 2.9200
  0.3700 	 1.4000 	 9.8885 	 9.3981 	 1.7405 	 59.0603 	 2.0385 	 52.3847 	 33.1497 	 6.6755 	 2.9200
  0.3700 	 1.4050 	 9.8925 	 9.3962 	 1.7360 	 59.0680 	 2.0363 	 52.4785 	 32.5762 	 6.5896 	 2.9200
  0.3700 	 1.4100 	 9.8964 	 9.3943 	 1.7315 	 59.0730 	 2.0342 	 52.5717 	 31.9968 	 6.5013 	 2.9200
  0.3700 	 1.4150 	 9.9003 	 9.3925 	 1.7271 	 59.0751 	 2.0321 	 52.6645 	 31.4111 	 6.4106 	 2.9200
  0.3700 	 1.4200 	 9.9042 	 9.3906 	 1.7227 	 59.0743 	 2.0300 	 52.7569 	 30.8186 	 6.3175 	 2.9200
  0.3700 	 1.4250 	 9.9080 	 9.3888 	 1.7183 	 59.0705 	 2.0279 	 52.8487 	 30.2190 	 6.2217 	 2.9200
  0.3700 	 1.4300 	 9.9119 	 9.3870 	 1.7140 	 59.0635 	 2.0258 	 52.9402 	 29.6117 	 6.1233 	 2.9200
  0.3700 	 1.4350 	 9.9156 	 9.3852 	 1.7096 	 59.0532 	 2.0238 	 53.0311 	 28.9962 	 6.0220 	 2.9200
  0.3700 	 1.4400 	 9.9194 	 9.3834 	 1.7053 	 59.0394 	 2.0218 	 53.1217 	 28.3719 	 5.9178 	 2.9200
  0.3700 	 1.4450 	 9.9231 	 9.3816 	 1.7011 	 59.0221 	 2.0198 	 53.2117 	 27.7383 	 5.8104 	 2.9200
  0.3700 	 1.4500 	 9.9269 	 9.3799 	 1.6968 	 59.0011 	 2.0178 	 53.3013 	 27.0945 	 5.6997 	 2.9200
  0.3700 	 1.4550 	 9.9305 	 9.3781 	 1.6926 	 58.9761 	 2.0159 	 53.3905 	 26.4399 	 5.5856 	 2.9200
  0.3700 	 1.4600 	 9.9342 	 9.3764 	 1.6884 	 58.9470 	 2.0139 	 53.4793 	 25.7734 	 5.4677 	 2.9200
  0.3700 	 1.4650 	 9.9378 	 9.3747 	 1.6843 	 58.9135 	 2.0120 	 53.5676 	 25.0942 	 5.3459 	 2.9200
  0.3700 	 1.4700 	 9.9415 	 9.3730 	 1.6801 	 58.8753 	 2.0101 	 53.6554 	 24.4011 	 5.2199 	 2.9200
  0.3700 	 1.4750 	 9.9450 	 9.3713 	 1.6760 	 58.8322 	 2.0082 	 53.7429 	 23.6929 	 5.0894 	 2.9200
  0.3700 	 1.4800 	 9.9486 	 9.3696 	 1.6719 	 58.7839 	 2.0063 	 53.8299 	 22.9680 	 4.9540 	 2.9200
  0.3700 	 1.4850 	 9.9522 	 9.3679 	 1.6679 	 58.7298 	 2.0045 	 53.9164 	 22.2248 	 4.8133 	 2.9200
  0.3700 	 1.4900 	 9.9557 	 9.3663 	 1.6638 	 58.6695 	 2.0027 	 54.0026 	 21.4614 	 4.6669 	 2.9200
  0.3700 	 1.4950 	 9.9592 	 9.3646 	 1.6598 	 58.6025 	 2.0008 	 54.0883 	 20.6755 	 4.5142 	 2.9200
  0.3700 	 1.5000 	 9.9626 	 9.3630 	 1.6558 	 58.5282 	 1.9990 	 54.1736 	 19.8643 	 4.3545 	 2.9200
  0.3700 	 1.5050 	 9.9661 	 9.3614 	 1.6519 	 58.4457 	 1.9972 	 54.2585 	 19.0245 	 4.1871 	 2.9200
  0.3700 	 1.5100 	 9.9695 	 9.3597 	 1.6479 	 58.3541 	 1.9955 	 54.3430 	 18.1522 	 4.0110 	 2.9200
  0.3700 	 1.5150 	 9.9729 	 9.3581 	 1.6440 	 58.2522 	 1.9937 	 54.4271 	 17.2422 	 3.8250 	 2.9200
  0.3700 	 1.5200 	 9.9763 	 9.3566 	 1.6401 	 58.1384 	 1.9920 	 54.5108 	 16.2883 	 3.6276 	 2.9200
  0.3700 	 1.5250 	 9.9796 	 9.3550 	 1.6363 	 58.0109 	 1.9903 	 54.5940 	 15.2820 	 3.4169 	 2.9200
  0.3700 	 1.5300 	 9.9830 	 9.3534 	 1.6324 	 57.8670 	 1.9886 	 54.6769 	 14.2124 	 3.1901 	 2.9200
  0.3700 	 1.5350 	 9.9863 	 9.3519 	 1.6286 	 57.7030 	 1.9869 	 54.7594 	 13.0636 	 2.9436 	 2.9200
  0.3700 	 1.5400 	 9.9896 	 9.3503 	 1.6248 	 57.5134 	 1.9852 	 54.8414 	 11.8126 	 2.6720 	 2.9200
  0.3700 	 1.5450 	 9.9928 	 9.3488 	 1.6210 	 57.2897 	 1.9835 	 54.9231 	 10.4226 	 2.3666 	 2.9200
  0.3700 	 1.5500 	 9.9961 	 9.3473 	 1.6173 	 57.0165 	 1.9819 	 55.0044 	 8.8278 	 2.0121 	 2.9200
  0.3700 	 1.5550 	 9.9993 	 9.3457 	 1.6135 	 56.6611 	 1.9802 	 55.0853 	 6.8875 	 1.5758 	 2.9200
  0.3700 	 1.3750 	 9.8645 	 9.4257 	 1.7678 	 58.9057 	 2.0541 	 51.8555 	 35.9039 	 7.0502 	 2.9300
  0.3700 	 1.3800 	 9.8686 	 9.4237 	 1.7631 	 58.9261 	 2.0519 	 51.9517 	 35.3542 	 6.9745 	 2.9300
  0.3700 	 1.3850 	 9.8726 	 9.4218 	 1.7585 	 58.9442 	 2.0496 	 52.0474 	 34.8000 	 6.8968 	 2.9300
  0.3700 	 1.3900 	 9.8767 	 9.4198 	 1.7539 	 58.9597 	 2.0474 	 52.1426 	 34.2411 	 6.8171 	 2.9300
  0.3700 	 1.3950 	 9.8807 	 9.4179 	 1.7493 	 58.9727 	 2.0452 	 52.2374 	 33.6771 	 6.7353 	 2.9300
  0.3700 	 1.4000 	 9.8847 	 9.4160 	 1.7448 	 58.9831 	 2.0430 	 52.3317 	 33.1078 	 6.6514 	 2.9300
  0.3700 	 1.4050 	 9.8887 	 9.4141 	 1.7403 	 58.9908 	 2.0408 	 52.4255 	 32.5328 	 6.5653 	 2.9300
  0.3700 	 1.4100 	 9.8926 	 9.4122 	 1.7358 	 58.9957 	 2.0387 	 52.5188 	 31.9518 	 6.4769 	 2.9300
  0.3700 	 1.4150 	 9.8966 	 9.4104 	 1.7314 	 58.9978 	 2.0366 	 52.6117 	 31.3645 	 6.3861 	 2.9300
  0.3700 	 1.4200 	 9.9004 	 9.4085 	 1.7270 	 58.9969 	 2.0345 	 52.7041 	 30.7703 	 6.2928 	 2.9300
  0.3700 	 1.4250 	 9.9043 	 9.4067 	 1.7226 	 58.9930 	 2.0324 	 52.7960 	 30.1689 	 6.1969 	 2.9300
  0.3700 	 1.4300 	 9.9081 	 9.4049 	 1.7182 	 58.9858 	 2.0303 	 52.8875 	 29.5597 	 6.0983 	 2.9300
  0.3700 	 1.4350 	 9.9119 	 9.4030 	 1.7139 	 58.9754 	 2.0283 	 52.9786 	 28.9423 	 5.9968 	 2.9300
  0.3700 	 1.4400 	 9.9157 	 9.4012 	 1.7096 	 58.9615 	 2.0263 	 53.0691 	 28.3160 	 5.8924 	 2.9300
  0.3700 	 1.4450 	 9.9195 	 9.3995 	 1.7053 	 58.9441 	 2.0242 	 53.1593 	 27.6802 	 5.7848 	 2.9300
  0.3700 	 1.4500 	 9.9232 	 9.3977 	 1.7010 	 58.9228 	 2.0223 	 53.2490 	 27.0342 	 5.6739 	 2.9300
  0.3700 	 1.4550 	 9.9269 	 9.3959 	 1.6968 	 58.8977 	 2.0203 	 53.3382 	 26.3771 	 5.5594 	 2.9300
  0.3700 	 1.4600 	 9.9306 	 9.3942 	 1.6926 	 58.8683 	 2.0183 	 53.4270 	 25.7081 	 5.4413 	 2.9300
  0.3700 	 1.4650 	 9.9342 	 9.3925 	 1.6884 	 58.8345 	 2.0164 	 53.5154 	 25.0262 	 5.3192 	 2.9300
  0.3700 	 1.4700 	 9.9378 	 9.3908 	 1.6843 	 58.7961 	 2.0145 	 53.6033 	 24.3302 	 5.1928 	 2.9300
  0.3700 	 1.4750 	 9.9414 	 9.3890 	 1.6801 	 58.7527 	 2.0126 	 53.6908 	 23.6189 	 5.0618 	 2.9300
  0.3700 	 1.4800 	 9.9450 	 9.3874 	 1.6760 	 58.7039 	 2.0107 	 53.7779 	 22.8906 	 4.9260 	 2.9300
  0.3700 	 1.4850 	 9.9486 	 9.3857 	 1.6720 	 58.6493 	 2.0089 	 53.8645 	 22.1439 	 4.7848 	 2.9300
  0.3700 	 1.4900 	 9.9521 	 9.3840 	 1.6679 	 58.5886 	 2.0070 	 53.9508 	 21.3765 	 4.6378 	 2.9300
  0.3700 	 1.4950 	 9.9556 	 9.3824 	 1.6639 	 58.5210 	 2.0052 	 54.0366 	 20.5862 	 4.4844 	 2.9300
  0.3700 	 1.5000 	 9.9591 	 9.3807 	 1.6599 	 58.4460 	 2.0034 	 54.1220 	 19.7702 	 4.3240 	 2.9300
  0.3700 	 1.5050 	 9.9625 	 9.3791 	 1.6559 	 58.3627 	 2.0016 	 54.2069 	 18.9251 	 4.1558 	 2.9300
  0.3700 	 1.5100 	 9.9660 	 9.3775 	 1.6520 	 58.2701 	 1.9998 	 54.2915 	 18.0467 	 3.9787 	 2.9300
  0.3700 	 1.5150 	 9.9694 	 9.3758 	 1.6481 	 58.1671 	 1.9980 	 54.3756 	 17.1298 	 3.7915 	 2.9300
  0.3700 	 1.5200 	 9.9728 	 9.3743 	 1.6442 	 58.0520 	 1.9963 	 54.4594 	 16.1679 	 3.5927 	 2.9300
  0.3700 	 1.5250 	 9.9761 	 9.3727 	 1.6403 	 57.9229 	 1.9946 	 54.5427 	 15.1522 	 3.3802 	 2.9300
  0.3700 	 1.5300 	 9.9795 	 9.3711 	 1.6364 	 57.7769 	 1.9928 	 54.6256 	 14.0711 	 3.1512 	 2.9300
  0.3700 	 1.5350 	 9.9828 	 9.3695 	 1.6326 	 57.6101 	 1.9911 	 54.7082 	 12.9081 	 2.9020 	 2.9300
  0.3700 	 1.5400 	 9.9861 	 9.3680 	 1.6288 	 57.4169 	 1.9895 	 54.7903 	 11.6386 	 2.6266 	 2.9300
  0.3700 	 1.5450 	 9.9894 	 9.3664 	 1.6250 	 57.1880 	 1.9878 	 54.8720 	 10.2227 	 2.3159 	 2.9300
  0.3700 	 1.5500 	 9.9927 	 9.3649 	 1.6212 	 56.9065 	 1.9861 	 54.9534 	 8.5885 	 1.9531 	 2.9300
  0.3700 	 1.5550 	 9.9959 	 9.3634 	 1.6175 	 56.5352 	 1.9845 	 55.0343 	 6.5747 	 1.5008 	 2.9300
  0.3700 	 1.3750 	 9.8606 	 9.4437 	 1.7722 	 58.8289 	 2.0587 	 51.8022 	 35.8688 	 7.0267 	 2.9400
  0.3700 	 1.3800 	 9.8647 	 9.4417 	 1.7675 	 58.8493 	 2.0564 	 51.8985 	 35.3178 	 6.9509 	 2.9400
  0.3700 	 1.3850 	 9.8688 	 9.4397 	 1.7629 	 58.8674 	 2.0542 	 51.9943 	 34.7623 	 6.8731 	 2.9400
  0.3700 	 1.3900 	 9.8729 	 9.4378 	 1.7583 	 58.8829 	 2.0519 	 52.0896 	 34.2020 	 6.7933 	 2.9400
  0.3700 	 1.3950 	 9.8769 	 9.4358 	 1.7537 	 58.8959 	 2.0497 	 52.1844 	 33.6367 	 6.7115 	 2.9400
  0.3700 	 1.4000 	 9.8809 	 9.4339 	 1.7491 	 58.9062 	 2.0475 	 52.2787 	 33.0659 	 6.6275 	 2.9400
  0.3700 	 1.4050 	 9.8849 	 9.4320 	 1.7446 	 58.9138 	 2.0453 	 52.3726 	 32.4894 	 6.5412 	 2.9400
  0.3700 	 1.4100 	 9.8889 	 9.4301 	 1.7401 	 58.9187 	 2.0432 	 52.4660 	 31.9069 	 6.4527 	 2.9400
  0.3700 	 1.4150 	 9.8928 	 9.4282 	 1.7357 	 58.9207 	 2.0411 	 52.5590 	 31.3179 	 6.3618 	 2.9400
  0.3700 	 1.4200 	 9.8967 	 9.4264 	 1.7312 	 58.9197 	 2.0389 	 52.6514 	 30.7220 	 6.2683 	 2.9400
  0.3700 	 1.4250 	 9.9006 	 9.4245 	 1.7268 	 58.9157 	 2.0369 	 52.7434 	 30.1188 	 6.1723 	 2.9400
  0.3700 	 1.4300 	 9.9044 	 9.4227 	 1.7224 	 58.9085 	 2.0348 	 52.8350 	 29.5078 	 6.0735 	 2.9400
  0.3700 	 1.4350 	 9.9082 	 9.4209 	 1.7181 	 58.8979 	 2.0327 	 52.9261 	 28.8884 	 5.9718 	 2.9400
  0.3700 	 1.4400 	 9.9120 	 9.4191 	 1.7138 	 58.8839 	 2.0307 	 53.0168 	 28.2601 	 5.8671 	 2.9400
  0.3700 	 1.4450 	 9.9158 	 9.4173 	 1.7095 	 58.8663 	 2.0287 	 53.1070 	 27.6221 	 5.7593 	 2.9400
  0.3700 	 1.4500 	 9.9195 	 9.4155 	 1.7052 	 58.8449 	 2.0267 	 53.1967 	 26.9738 	 5.6481 	 2.9400
  0.3700 	 1.4550 	 9.9232 	 9.4137 	 1.7010 	 58.8195 	 2.0247 	 53.2860 	 26.3144 	 5.5334 	 2.9400
  0.3700 	 1.4600 	 9.9269 	 9.4120 	 1.6968 	 58.7899 	 2.0228 	 53.3749 	 25.6428 	 5.4150 	 2.9400
  0.3700 	 1.4650 	 9.9306 	 9.4102 	 1.6926 	 58.7558 	 2.0208 	 53.4633 	 24.9582 	 5.2925 	 2.9400
  0.3700 	 1.4700 	 9.9342 	 9.4085 	 1.6884 	 58.7171 	 2.0189 	 53.5513 	 24.2593 	 5.1658 	 2.9400
  0.3700 	 1.4750 	 9.9378 	 9.4068 	 1.6843 	 58.6733 	 2.0170 	 53.6389 	 23.5448 	 5.0344 	 2.9400
  0.3700 	 1.4800 	 9.9414 	 9.4051 	 1.6802 	 58.6241 	 2.0151 	 53.7261 	 22.8132 	 4.8981 	 2.9400
  0.3700 	 1.4850 	 9.9450 	 9.4034 	 1.6761 	 58.5692 	 2.0132 	 53.8128 	 22.0627 	 4.7564 	 2.9400
  0.3700 	 1.4900 	 9.9485 	 9.4017 	 1.6720 	 58.5079 	 2.0114 	 53.8991 	 21.2914 	 4.6088 	 2.9400
  0.3700 	 1.4950 	 9.9520 	 9.4001 	 1.6680 	 58.4397 	 2.0095 	 53.9849 	 20.4967 	 4.4548 	 2.9400
  0.3700 	 1.5000 	 9.9555 	 9.3984 	 1.6640 	 58.3640 	 2.0077 	 54.0704 	 19.6759 	 4.2936 	 2.9400
  0.3700 	 1.5050 	 9.9590 	 9.3968 	 1.6600 	 58.2799 	 2.0059 	 54.1554 	 18.8253 	 4.1245 	 2.9400
  0.3700 	 1.5100 	 9.9624 	 9.3951 	 1.6560 	 58.1864 	 2.0041 	 54.2401 	 17.9407 	 3.9463 	 2.9400
  0.3700 	 1.5150 	 9.9659 	 9.3935 	 1.6521 	 58.0822 	 2.0024 	 54.3243 	 17.0169 	 3.7579 	 2.9400
  0.3700 	 1.5200 	 9.9693 	 9.3919 	 1.6482 	 57.9658 	 2.0006 	 54.4081 	 16.0468 	 3.5577 	 2.9400
  0.3700 	 1.5250 	 9.9726 	 9.3903 	 1.6443 	 57.8349 	 1.9989 	 54.4915 	 15.0215 	 3.3434 	 2.9400
  0.3700 	 1.5300 	 9.9760 	 9.3887 	 1.6404 	 57.6868 	 1.9971 	 54.5745 	 13.9287 	 3.1123 	 2.9400
  0.3700 	 1.5350 	 9.9793 	 9.3872 	 1.6366 	 57.5173 	 1.9954 	 54.6571 	 12.7510 	 2.8602 	 2.9400
  0.3700 	 1.5400 	 9.9827 	 9.3856 	 1.6328 	 57.3203 	 1.9937 	 54.7393 	 11.4622 	 2.5810 	 2.9400
  0.3700 	 1.5450 	 9.9859 	 9.3841 	 1.6290 	 57.0859 	 1.9921 	 54.8211 	 10.0193 	 2.2648 	 2.9400
  0.3700 	 1.5500 	 9.9892 	 9.3825 	 1.6252 	 56.7955 	 1.9904 	 54.9025 	 8.3428 	 1.8930 	 2.9400
  0.3700 	 1.5550 	 9.9925 	 9.3810 	 1.6214 	 56.4064 	 1.9887 	 54.9835 	 6.2470 	 1.4228 	 2.9400
  0.3700 	 1.3750 	 9.8567 	 9.4616 	 1.7766 	 58.7524 	 2.0633 	 51.7491 	 35.8338 	 7.0033 	 2.9500
  0.3700 	 1.3800 	 9.8608 	 9.4596 	 1.7719 	 58.7728 	 2.0610 	 51.8454 	 35.2815 	 6.9274 	 2.9500
  0.3700 	 1.3850 	 9.8650 	 9.4576 	 1.7672 	 58.7908 	 2.0587 	 51.9413 	 34.7247 	 6.8495 	 2.9500
  0.3700 	 1.3900 	 9.8690 	 9.4557 	 1.7626 	 58.8063 	 2.0565 	 52.0366 	 34.1630 	 6.7697 	 2.9500
  0.3700 	 1.3950 	 9.8731 	 9.4537 	 1.7580 	 58.8193 	 2.0542 	 52.1315 	 33.5963 	 6.6877 	 2.9500
  0.3700 	 1.4000 	 9.8771 	 9.4518 	 1.7535 	 58.8296 	 2.0520 	 52.2259 	 33.0240 	 6.6036 	 2.9500
  0.3700 	 1.4050 	 9.8811 	 9.4499 	 1.7489 	 58.8372 	 2.0499 	 52.3199 	 32.4460 	 6.5173 	 2.9500
  0.3700 	 1.4100 	 9.8851 	 9.4480 	 1.7444 	 58.8420 	 2.0477 	 52.4134 	 31.8619 	 6.4286 	 2.9500
  0.3700 	 1.4150 	 9.8890 	 9.4461 	 1.7399 	 58.8439 	 2.0456 	 52.5064 	 31.2713 	 6.3375 	 2.9500
  0.3700 	 1.4200 	 9.8929 	 9.4442 	 1.7355 	 58.8428 	 2.0434 	 52.5989 	 30.6737 	 6.2439 	 2.9500
  0.3700 	 1.4250 	 9.8968 	 9.4424 	 1.7311 	 58.8387 	 2.0413 	 52.6910 	 30.0687 	 6.1477 	 2.9500
  0.3700 	 1.4300 	 9.9007 	 9.4405 	 1.7267 	 58.8314 	 2.0392 	 52.7826 	 29.4559 	 6.0487 	 2.9500
  0.3700 	 1.4350 	 9.9045 	 9.4387 	 1.7223 	 58.8207 	 2.0372 	 52.8738 	 28.8345 	 5.9469 	 2.9500
  0.3700 	 1.4400 	 9.9083 	 9.4369 	 1.7180 	 58.8065 	 2.0351 	 52.9645 	 28.2042 	 5.8420 	 2.9500
  0.3700 	 1.4450 	 9.9121 	 9.4351 	 1.7137 	 58.7887 	 2.0331 	 53.0548 	 27.5640 	 5.7340 	 2.9500
  0.3700 	 1.4500 	 9.9158 	 9.4333 	 1.7094 	 58.7671 	 2.0311 	 53.1446 	 26.9135 	 5.6225 	 2.9500
  0.3700 	 1.4550 	 9.9196 	 9.4315 	 1.7052 	 58.7415 	 2.0291 	 53.2340 	 26.2516 	 5.5076 	 2.9500
  0.3700 	 1.4600 	 9.9233 	 9.4298 	 1.7009 	 58.7117 	 2.0272 	 53.3229 	 25.5774 	 5.3888 	 2.9500
  0.3700 	 1.4650 	 9.9269 	 9.4280 	 1.6967 	 58.6774 	 2.0252 	 53.4114 	 24.8901 	 5.2660 	 2.9500
  0.3700 	 1.4700 	 9.9306 	 9.4263 	 1.6926 	 58.6383 	 2.0233 	 53.4995 	 24.1882 	 5.1388 	 2.9500
  0.3700 	 1.4750 	 9.9342 	 9.4245 	 1.6884 	 58.5942 	 2.0214 	 53.5871 	 23.4706 	 5.0071 	 2.9500
  0.3700 	 1.4800 	 9.9378 	 9.4228 	 1.6843 	 58.5446 	 2.0195 	 53.6743 	 22.7356 	 4.8703 	 2.9500
  0.3700 	 1.4850 	 9.9414 	 9.4211 	 1.6802 	 58.4892 	 2.0176 	 53.7611 	 21.9815 	 4.7281 	 2.9500
  0.3700 	 1.4900 	 9.9449 	 9.4194 	 1.6761 	 58.4274 	 2.0157 	 53.8475 	 21.2061 	 4.5799 	 2.9500
  0.3700 	 1.4950 	 9.9485 	 9.4178 	 1.6721 	 58.3586 	 2.0139 	 53.9334 	 20.4070 	 4.4252 	 2.9500
  0.3700 	 1.5000 	 9.9520 	 9.4161 	 1.6681 	 58.2822 	 2.0121 	 54.0189 	 19.5812 	 4.2633 	 2.9500
  0.3700 	 1.5050 	 9.9555 	 9.4145 	 1.6641 	 58.1973 	 2.0102 	 54.1041 	 18.7252 	 4.0932 	 2.9500
  0.3700 	 1.5100 	 9.9589 	 9.4128 	 1.6601 	 58.1028 	 2.0084 	 54.1887 	 17.8344 	 3.9141 	 2.9500
  0.3700 	 1.5150 	 9.9624 	 9.4112 	 1.6562 	 57.9975 	 2.0067 	 54.2730 	 16.9034 	 3.7245 	 2.9500
  0.3700 	 1.5200 	 9.9658 	 9.4096 	 1.6522 	 57.8796 	 2.0049 	 54.3569 	 15.9250 	 3.5227 	 2.9500
  0.3700 	 1.5250 	 9.9692 	 9.4080 	 1.6483 	 57.7471 	 2.0032 	 54.4404 	 14.8899 	 3.3067 	 2.9500
  0.3700 	 1.5300 	 9.9725 	 9.4064 	 1.6444 	 57.5967 	 2.0014 	 54.5234 	 13.7851 	 3.0733 	 2.9500
  0.3700 	 1.5350 	 9.9759 	 9.4048 	 1.6406 	 57.4244 	 1.9997 	 54.6061 	 12.5923 	 2.8182 	 2.9500
  0.3700 	 1.5400 	 9.9792 	 9.4032 	 1.6368 	 57.2234 	 1.9980 	 54.6884 	 11.2834 	 2.5351 	 2.9500
  0.3700 	 1.5450 	 9.9825 	 9.4017 	 1.6330 	 56.9832 	 1.9963 	 54.7703 	 9.8121 	 2.2130 	 2.9500
  0.3700 	 1.5500 	 9.9858 	 9.4001 	 1.6292 	 56.6833 	 1.9947 	 54.8518 	 8.0901 	 1.8316 	 2.9500
  0.3700 	 1.5550 	 9.9890 	 9.3986 	 1.6254 	 56.2740 	 1.9930 	 54.9329 	 5.9017 	 1.3412 	 2.9500
  0.3700 	 1.3750 	 9.8528 	 9.4795 	 1.7810 	 58.6761 	 2.0679 	 51.6961 	 35.7987 	 6.9800 	 2.9600
  0.3700 	 1.3800 	 9.8570 	 9.4775 	 1.7763 	 58.6966 	 2.0655 	 51.7925 	 35.2452 	 6.9041 	 2.9600
  0.3700 	 1.3850 	 9.8611 	 9.4755 	 1.7716 	 58.7145 	 2.0633 	 51.8884 	 34.6871 	 6.8261 	 2.9600
  0.3700 	 1.3900 	 9.8652 	 9.4736 	 1.7669 	 58.7300 	 2.0610 	 51.9839 	 34.1241 	 6.7462 	 2.9600
  0.3700 	 1.3950 	 9.8693 	 9.4716 	 1.7623 	 58.7429 	 2.0588 	 52.0788 	 33.5559 	 6.6641 	 2.9600
  0.3700 	 1.4000 	 9.8733 	 9.4697 	 1.7578 	 58.7532 	 2.0566 	 52.1733 	 32.9822 	 6.5799 	 2.9600
  0.3700 	 1.4050 	 9.8773 	 9.4678 	 1.7532 	 58.7607 	 2.0544 	 52.2673 	 32.4027 	 6.4934 	 2.9600
  0.3700 	 1.4100 	 9.8813 	 9.4658 	 1.7487 	 58.7655 	 2.0522 	 52.3608 	 31.8170 	 6.4046 	 2.9600
  0.3700 	 1.4150 	 9.8853 	 9.4639 	 1.7442 	 58.7673 	 2.0500 	 52.4539 	 31.2247 	 6.3134 	 2.9600
  0.3700 	 1.4200 	 9.8892 	 9.4621 	 1.7398 	 58.7662 	 2.0479 	 52.5465 	 30.6254 	 6.2197 	 2.9600
  0.3700 	 1.4250 	 9.8931 	 9.4602 	 1.7353 	 58.7620 	 2.0458 	 52.6387 	 30.0187 	 6.1233 	 2.9600
  0.3700 	 1.4300 	 9.8969 	 9.4583 	 1.7309 	 58.7545 	 2.0437 	 52.7304 	 29.4039 	 6.0241 	 2.9600
  0.3700 	 1.4350 	 9.9008 	 9.4565 	 1.7266 	 58.7437 	 2.0416 	 52.8216 	 28.7806 	 5.9221 	 2.9600
  0.3700 	 1.4400 	 9.9046 	 9.4547 	 1.7222 	 58.7294 	 2.0396 	 52.9124 	 28.1482 	 5.8170 	 2.9600
  0.3700 	 1.4450 	 9.9084 	 9.4529 	 1.7179 	 58.7114 	 2.0375 	 53.0027 	 27.5059 	 5.7087 	 2.9600
  0.3700 	 1.4500 	 9.9122 	 9.4511 	 1.7136 	 58.6897 	 2.0355 	 53.0926 	 26.8530 	 5.5970 	 2.9600
  0.3700 	 1.4550 	 9.9159 	 9.4493 	 1.7093 	 58.6638 	 2.0335 	 53.1821 	 26.1887 	 5.4818 	 2.9600
  0.3700 	 1.4600 	 9.9196 	 9.4475 	 1.7051 	 58.6338 	 2.0316 	 53.2711 	 25.5120 	 5.3627 	 2.9600
  0.3700 	 1.4650 	 9.9233 	 9.4457 	 1.7009 	 58.5992 	 2.0296 	 53.3596 	 24.8219 	 5.2396 	 2.9600
  0.3700 	 1.4700 	 9.9270 	 9.4440 	 1.6967 	 58.5598 	 2.0277 	 53.4478 	 24.1171 	 5.1121 	 2.9600
  0.3700 	 1.4750 	 9.9306 	 9.4423 	 1.6925 	 58.5153 	 2.0257 	 53.5355 	 23.3963 	 4.9799 	 2.9600
  0.3700 	 1.4800 	 9.9342 	 9.4405 	 1.6884 	 58.4654 	 2.0238 	 53.6228 	 22.6579 	 4.8426 	 2.9600
  0.3700 	 1.4850 	 9.9378 	 9.4388 	 1.6843 	 58.4095 	 2.0219 	 53.7096 	 21.9001 	 4.6999 	 2.9600
  0.3700 	 1.4900 	 9.9414 	 9.4371 	 1.6802 	 58.3471 	 2.0201 	 53.7960 	 21.1206 	 4.5511 	 2.9600
  0.3700 	 1.4950 	 9.9449 	 9.4355 	 1.6762 	 58.2778 	 2.0182 	 53.8820 	 20.3170 	 4.3957 	 2.9600
  0.3700 	 1.5000 	 9.9484 	 9.4338 	 1.6721 	 58.2006 	 2.0164 	 53.9676 	 19.4863 	 4.2330 	 2.9600
  0.3700 	 1.5050 	 9.9519 	 9.4321 	 1.6681 	 58.1149 	 2.0146 	 54.0528 	 18.6247 	 4.0621 	 2.9600
  0.3700 	 1.5100 	 9.9554 	 9.4305 	 1.6642 	 58.0194 	 2.0128 	 54.1376 	 17.7276 	 3.8819 	 2.9600
  0.3700 	 1.5150 	 9.9588 	 9.4288 	 1.6602 	 57.9129 	 2.0110 	 54.2219 	 16.7894 	 3.6910 	 2.9600
  0.3700 	 1.5200 	 9.9623 	 9.4272 	 1.6563 	 57.7937 	 2.0092 	 54.3059 	 15.8026 	 3.4878 	 2.9600
  0.3700 	 1.5250 	 9.9657 	 9.4256 	 1.6523 	 57.6593 	 2.0075 	 54.3894 	 14.7574 	 3.2699 	 2.9600
  0.3700 	 1.5300 	 9.9690 	 9.4240 	 1.6485 	 57.5067 	 2.0057 	 54.4725 	 13.6403 	 3.0342 	 2.9600
  0.3700 	 1.5350 	 9.9724 	 9.4224 	 1.6446 	 57.3314 	 2.0040 	 54.5553 	 12.4318 	 2.7761 	 2.9600
  0.3700 	 1.5400 	 9.9757 	 9.4208 	 1.6408 	 57.1264 	 2.0023 	 54.6376 	 11.1021 	 2.4887 	 2.9600
  0.3700 	 1.5450 	 9.9790 	 9.4193 	 1.6369 	 56.8801 	 2.0006 	 54.7196 	 9.6009 	 2.1605 	 2.9600
  0.3700 	 1.5500 	 9.9823 	 9.4177 	 1.6331 	 56.5698 	 1.9989 	 54.8011 	 7.8299 	 1.7687 	 2.9600
  0.3700 	 1.5550 	 9.9856 	 9.4162 	 1.6294 	 56.1375 	 1.9972 	 54.8823 	 5.5358 	 1.2552 	 2.9600
  0.3700 	 1.3750 	 9.8489 	 9.4974 	 1.7853 	 58.6002 	 2.0724 	 51.6433 	 35.7637 	 6.9569 	 2.9700
  0.3700 	 1.3800 	 9.8531 	 9.4954 	 1.7806 	 58.6206 	 2.0701 	 51.7397 	 35.2089 	 6.8808 	 2.9700
  0.3700 	 1.3850 	 9.8573 	 9.4934 	 1.7759 	 58.6385 	 2.0678 	 51.8357 	 34.6495 	 6.8028 	 2.9700
  0.3700 	 1.3900 	 9.8614 	 9.4915 	 1.7713 	 58.6540 	 2.0655 	 51.9312 	 34.0851 	 6.7228 	 2.9700
  0.3700 	 1.3950 	 9.8655 	 9.4895 	 1.7667 	 58.6668 	 2.0633 	 52.0262 	 33.5155 	 6.6406 	 2.9700
  0.3700 	 1.4000 	 9.8695 	 9.4875 	 1.7621 	 58.6771 	 2.0611 	 52.1208 	 32.9403 	 6.5563 	 2.9700
  0.3700 	 1.4050 	 9.8735 	 9.4856 	 1.7575 	 58.6846 	 2.0589 	 52.2148 	 32.3593 	 6.4697 	 2.9700
  0.3700 	 1.4100 	 9.8775 	 9.4837 	 1.7530 	 58.6892 	 2.0567 	 52.3084 	 31.7720 	 6.3808 	 2.9700
  0.3700 	 1.4150 	 9.8815 	 9.4818 	 1.7485 	 58.6910 	 2.0545 	 52.4016 	 31.1781 	 6.2894 	 2.9700
  0.3700 	 1.4200 	 9.8854 	 9.4799 	 1.7440 	 58.6898 	 2.0524 	 52.4943 	 30.5771 	 6.1955 	 2.9700
  0.3700 	 1.4250 	 9.8893 	 9.4780 	 1.7396 	 58.6855 	 2.0503 	 52.5865 	 29.9686 	 6.0990 	 2.9700
  0.3700 	 1.4300 	 9.8932 	 9.4761 	 1.7352 	 58.6779 	 2.0482 	 52.6782 	 29.3520 	 5.9997 	 2.9700
  0.3700 	 1.4350 	 9.8971 	 9.4743 	 1.7308 	 58.6670 	 2.0461 	 52.7695 	 28.7267 	 5.8974 	 2.9700
  0.3700 	 1.4400 	 9.9009 	 9.4724 	 1.7264 	 58.6525 	 2.0440 	 52.8604 	 28.0922 	 5.7921 	 2.9700
  0.3700 	 1.4450 	 9.9047 	 9.4706 	 1.7221 	 58.6344 	 2.0420 	 52.9508 	 27.4478 	 5.6836 	 2.9700
  0.3700 	 1.4500 	 9.9085 	 9.4688 	 1.7178 	 58.6124 	 2.0400 	 53.0407 	 26.7926 	 5.5717 	 2.9700
  0.3700 	 1.4550 	 9.9122 	 9.4670 	 1.7135 	 58.5864 	 2.0379 	 53.1303 	 26.1258 	 5.4561 	 2.9700
  0.3700 	 1.4600 	 9.9160 	 9.4652 	 1.7093 	 58.5561 	 2.0360 	 53.2193 	 25.4466 	 5.3368 	 2.9700
  0.3700 	 1.4650 	 9.9197 	 9.4635 	 1.7050 	 58.5212 	 2.0340 	 53.3080 	 24.7537 	 5.2133 	 2.9700
  0.3700 	 1.4700 	 9.9233 	 9.4617 	 1.7008 	 58.4816 	 2.0320 	 53.3962 	 24.0459 	 5.0854 	 2.9700
  0.3700 	 1.4750 	 9.9270 	 9.4600 	 1.6967 	 58.4367 	 2.0301 	 53.4840 	 23.3219 	 4.9528 	 2.9700
  0.3700 	 1.4800 	 9.9306 	 9.4582 	 1.6925 	 58.3863 	 2.0282 	 53.5713 	 22.5801 	 4.8150 	 2.9700
  0.3700 	 1.4850 	 9.9342 	 9.4565 	 1.6884 	 58.3300 	 2.0263 	 53.6582 	 21.8185 	 4.6718 	 2.9700
  0.3700 	 1.4900 	 9.9378 	 9.4548 	 1.6843 	 58.2671 	 2.0244 	 53.7447 	 21.0349 	 4.5224 	 2.9700
  0.3700 	 1.4950 	 9.9413 	 9.4531 	 1.6803 	 58.1971 	 2.0226 	 53.8308 	 20.2269 	 4.3663 	 2.9700
  0.3700 	 1.5000 	 9.9449 	 9.4514 	 1.6762 	 58.1193 	 2.0207 	 53.9164 	 19.3911 	 4.2028 	 2.9700
  0.3700 	 1.5050 	 9.9484 	 9.4498 	 1.6722 	 58.0327 	 2.0189 	 54.0017 	 18.5239 	 4.0310 	 2.9700
  0.3700 	 1.5100 	 9.9519 	 9.4481 	 1.6682 	 57.9362 	 2.0171 	 54.0865 	 17.6204 	 3.8497 	 2.9700
  0.3700 	 1.5150 	 9.9553 	 9.4465 	 1.6642 	 57.8285 	 2.0153 	 54.1709 	 16.6748 	 3.6576 	 2.9700
  0.3700 	 1.5200 	 9.9588 	 9.4448 	 1.6603 	 57.7078 	 2.0135 	 54.2549 	 15.6794 	 3.4528 	 2.9700
  0.3700 	 1.5250 	 9.9622 	 9.4432 	 1.6564 	 57.5716 	 2.0117 	 54.3386 	 14.6239 	 3.2331 	 2.9700
  0.3700 	 1.5300 	 9.9656 	 9.4416 	 1.6525 	 57.4167 	 2.0100 	 54.4218 	 13.4942 	 2.9950 	 2.9700
  0.3700 	 1.5350 	 9.9689 	 9.4400 	 1.6486 	 57.2383 	 2.0083 	 54.5046 	 12.2696 	 2.7338 	 2.9700
  0.3700 	 1.5400 	 9.9723 	 9.4384 	 1.6447 	 57.0290 	 2.0065 	 54.5870 	 10.9182 	 2.4421 	 2.9700
  0.3700 	 1.5450 	 9.9756 	 9.4368 	 1.6409 	 56.7763 	 2.0048 	 54.6690 	 9.3853 	 2.1073 	 2.9700
  0.3700 	 1.5500 	 9.9789 	 9.4353 	 1.6371 	 56.4548 	 2.0032 	 54.7506 	 7.5612 	 1.7042 	 2.9700
  0.3700 	 1.5550 	 9.9822 	 9.4337 	 1.6333 	 55.9958 	 2.0015 	 54.8318 	 5.1447 	 1.1640 	 2.9700
  0.3700 	 1.3750 	 9.8451 	 9.5153 	 1.7897 	 58.5244 	 2.0770 	 51.5905 	 35.7287 	 6.9339 	 2.9800
  0.3700 	 1.3800 	 9.8493 	 9.5133 	 1.7850 	 58.5448 	 2.0747 	 51.6871 	 35.1727 	 6.8578 	 2.9800
  0.3700 	 1.3850 	 9.8534 	 9.5113 	 1.7803 	 58.5628 	 2.0724 	 51.7831 	 34.6119 	 6.7796 	 2.9800
  0.3700 	 1.3900 	 9.8575 	 9.5093 	 1.7756 	 58.5782 	 2.0701 	 51.8787 	 34.0461 	 6.6995 	 2.9800
  0.3700 	 1.3950 	 9.8616 	 9.5073 	 1.7710 	 58.5910 	 2.0678 	 51.9738 	 33.4751 	 6.6173 	 2.9800
  0.3700 	 1.4000 	 9.8657 	 9.5054 	 1.7664 	 58.6012 	 2.0656 	 52.0684 	 32.8985 	 6.5328 	 2.9800
  0.3700 	 1.4050 	 9.8697 	 9.5034 	 1.7618 	 58.6086 	 2.0634 	 52.1625 	 32.3160 	 6.4461 	 2.9800
  0.3700 	 1.4100 	 9.8737 	 9.5015 	 1.7573 	 58.6133 	 2.0612 	 52.2562 	 31.7271 	 6.3571 	 2.9800
  0.3700 	 1.4150 	 9.8777 	 9.4996 	 1.7528 	 58.6150 	 2.0590 	 52.3494 	 31.1316 	 6.2656 	 2.9800
  0.3700 	 1.4200 	 9.8817 	 9.4977 	 1.7483 	 58.6137 	 2.0569 	 52.4421 	 30.5289 	 6.1715 	 2.9800
  0.3700 	 1.4250 	 9.8856 	 9.4958 	 1.7438 	 58.6092 	 2.0547 	 52.5344 	 29.9185 	 6.0748 	 2.9800
  0.3700 	 1.4300 	 9.8895 	 9.4939 	 1.7394 	 58.6016 	 2.0526 	 52.6262 	 29.3000 	 5.9753 	 2.9800
  0.3700 	 1.4350 	 9.8934 	 9.4920 	 1.7350 	 58.5905 	 2.0505 	 52.7176 	 28.6728 	 5.8729 	 2.9800
  0.3700 	 1.4400 	 9.8972 	 9.4902 	 1.7306 	 58.5759 	 2.0485 	 52.8085 	 28.0362 	 5.7674 	 2.9800
  0.3700 	 1.4450 	 9.9010 	 9.4884 	 1.7263 	 58.5576 	 2.0464 	 52.8990 	 27.3896 	 5.6586 	 2.9800
  0.3700 	 1.4500 	 9.9048 	 9.4865 	 1.7220 	 58.5354 	 2.0444 	 52.9890 	 26.7321 	 5.5464 	 2.9800
  0.3700 	 1.4550 	 9.9086 	 9.4847 	 1.7177 	 58.5092 	 2.0424 	 53.0786 	 26.0629 	 5.4306 	 2.9800
  0.3700 	 1.4600 	 9.9123 	 9.4829 	 1.7134 	 58.4786 	 2.0404 	 53.1677 	 25.3810 	 5.3109 	 2.9800
  0.3700 	 1.4650 	 9.9160 	 9.4812 	 1.7092 	 58.4435 	 2.0384 	 53.2564 	 24.6854 	 5.1871 	 2.9800
  0.3700 	 1.4700 	 9.9197 	 9.4794 	 1.7050 	 58.4035 	 2.0364 	 53.3447 	 23.9746 	 5.0588 	 2.9800
  0.3700 	 1.4750 	 9.9234 	 9.4776 	 1.7008 	 58.3583 	 2.0345 	 53.4326 	 23.2475 	 4.9258 	 2.9800
  0.3700 	 1.4800 	 9.9270 	 9.4759 	 1.6967 	 58.3075 	 2.0326 	 53.5200 	 22.5021 	 4.7876 	 2.9800
  0.3700 	 1.4850 	 9.9306 	 9.4742 	 1.6925 	 58.2507 	 2.0307 	 53.6069 	 21.7368 	 4.6438 	 2.9800
  0.3700 	 1.4900 	 9.9342 	 9.4725 	 1.6884 	 58.1873 	 2.0288 	 53.6935 	 20.9491 	 4.4938 	 2.9800
  0.3700 	 1.4950 	 9.9378 	 9.4707 	 1.6843 	 58.1167 	 2.0269 	 53.7797 	 20.1365 	 4.3370 	 2.9800
  0.3700 	 1.5000 	 9.9413 	 9.4691 	 1.6803 	 58.0381 	 2.0250 	 53.8654 	 19.2956 	 4.1727 	 2.9800
  0.3700 	 1.5050 	 9.9448 	 9.4674 	 1.6763 	 57.9507 	 2.0232 	 53.9507 	 18.4227 	 4.0000 	 2.9800
  0.3700 	 1.5100 	 9.9483 	 9.4657 	 1.6722 	 57.8532 	 2.0214 	 54.0356 	 17.5128 	 3.8176 	 2.9800
  0.3700 	 1.5150 	 9.9518 	 9.4641 	 1.6683 	 57.7443 	 2.0196 	 54.1201 	 16.5597 	 3.6242 	 2.9800
  0.3700 	 1.5200 	 9.9552 	 9.4624 	 1.6643 	 57.6221 	 2.0178 	 54.2041 	 15.5555 	 3.4179 	 2.9800
  0.3700 	 1.5250 	 9.9587 	 9.4608 	 1.6604 	 57.4840 	 2.0160 	 54.2878 	 14.4895 	 3.1962 	 2.9800
  0.3700 	 1.5300 	 9.9621 	 9.4592 	 1.6565 	 57.3267 	 2.0143 	 54.3711 	 13.3468 	 2.9556 	 2.9800
  0.3700 	 1.5350 	 9.9655 	 9.4576 	 1.6526 	 57.1452 	 2.0125 	 54.4540 	 12.1055 	 2.6912 	 2.9800
  0.3700 	 1.5400 	 9.9688 	 9.4560 	 1.6487 	 56.9314 	 2.0108 	 54.5364 	 10.7315 	 2.3950 	 2.9800
  0.3700 	 1.5450 	 9.9722 	 9.4544 	 1.6449 	 56.6718 	 2.0091 	 54.6185 	 9.1651 	 2.0533 	 2.9800
  0.3700 	 1.5500 	 9.9755 	 9.4528 	 1.6411 	 56.3381 	 2.0074 	 54.7002 	 7.2832 	 1.6379 	 2.9800
  0.3700 	 1.3750 	 9.8412 	 9.5332 	 1.7941 	 58.4489 	 2.0815 	 51.5379 	 35.6937 	 6.9110 	 2.9900
  0.3700 	 1.3800 	 9.8454 	 9.5312 	 1.7893 	 58.4693 	 2.0792 	 51.6345 	 35.1364 	 6.8348 	 2.9900
  0.3700 	 1.3850 	 9.8496 	 9.5291 	 1.7846 	 58.4872 	 2.0769 	 51.7306 	 34.5743 	 6.7566 	 2.9900
  0.3700 	 1.3900 	 9.8537 	 9.5271 	 1.7800 	 58.5026 	 2.0746 	 51.8263 	 34.0072 	 6.6764 	 2.9900
  0.3700 	 1.3950 	 9.8578 	 9.5252 	 1.7753 	 58.5154 	 2.0723 	 51.9214 	 33.4348 	 6.5940 	 2.9900
  0.3700 	 1.4000 	 9.8619 	 9.5232 	 1.7707 	 58.5256 	 2.0701 	 52.0161 	 32.8567 	 6.5095 	 2.9900
  0.3700 	 1.4050 	 9.8659 	 9.5212 	 1.7661 	 58.5330 	 2.0679 	 52.1103 	 32.2726 	 6.4227 	 2.9900
  0.3700 	 1.4100 	 9.8700 	 9.5193 	 1.7616 	 58.5375 	 2.0657 	 52.2040 	 31.6822 	 6.3335 	 2.9900
  0.3700 	 1.4150 	 9.8740 	 9.5173 	 1.7570 	 58.5392 	 2.0635 	 52.2973 	 31.0850 	 6.2419 	 2.9900
  0.3700 	 1.4200 	 9.8779 	 9.5154 	 1.7525 	 58.5378 	 2.0613 	 52.3901 	 30.4806 	 6.1477 	 2.9900
  0.3700 	 1.4250 	 9.8819 	 9.5135 	 1.7481 	 58.5332 	 2.0592 	 52.4825 	 29.8685 	 6.0508 	 2.9900
  0.3700 	 1.4300 	 9.8858 	 9.5116 	 1.7436 	 58.5255 	 2.0571 	 52.5744 	 29.2481 	 5.9511 	 2.9900
  0.3700 	 1.4350 	 9.8896 	 9.5098 	 1.7392 	 58.5143 	 2.0550 	 52.6658 	 28.6189 	 5.8485 	 2.9900
  0.3700 	 1.4400 	 9.8935 	 9.5079 	 1.7348 	 58.4995 	 2.0529 	 52.7568 	 27.9802 	 5.7427 	 2.9900
  0.3700 	 1.4450 	 9.8973 	 9.5061 	 1.7305 	 58.4811 	 2.0508 	 52.8473 	 27.3314 	 5.6338 	 2.9900
  0.3700 	 1.4500 	 9.9011 	 9.5042 	 1.7262 	 58.4587 	 2.0488 	 52.9374 	 26.6716 	 5.5213 	 2.9900
  0.3700 	 1.4550 	 9.9049 	 9.5024 	 1.7219 	 58.4323 	 2.0468 	 53.0270 	 26.0000 	 5.4052 	 2.9900
  0.3700 	 1.4600 	 9.9087 	 9.5006 	 1.7176 	 58.4015 	 2.0448 	 53.1163 	 25.3155 	 5.2852 	 2.9900
  0.3700 	 1.4650 	 9.9124 	 9.4988 	 1.7133 	 58.3660 	 2.0428 	 53.2050 	 24.6170 	 5.1610 	 2.9900
  0.3700 	 1.4700 	 9.9161 	 9.4971 	 1.7091 	 58.3257 	 2.0408 	 53.2934 	 23.9033 	 5.0324 	 2.9900
  0.3700 	 1.4750 	 9.9198 	 9.4953 	 1.7049 	 58.2802 	 2.0389 	 53.3813 	 23.1729 	 4.8989 	 2.9900
  0.3700 	 1.4800 	 9.9234 	 9.4935 	 1.7008 	 58.2290 	 2.0369 	 53.4688 	 22.4241 	 4.7602 	 2.9900
  0.3700 	 1.4850 	 9.9270 	 9.4918 	 1.6966 	 58.1717 	 2.0350 	 53.5558 	 21.6549 	 4.6159 	 2.9900
  0.3700 	 1.4900 	 9.9306 	 9.4901 	 1.6925 	 58.1077 	 2.0331 	 53.6424 	 20.8631 	 4.4653 	 2.9900
  0.3700 	 1.4950 	 9.9342 	 9.4884 	 1.6884 	 58.0365 	 2.0312 	 53.7286 	 20.0458 	 4.3078 	 2.9900
  0.3700 	 1.5000 	 9.9378 	 9.4867 	 1.6844 	 57.9572 	 2.0294 	 53.8144 	 19.1998 	 4.1427 	 2.9900
  0.3700 	 1.5050 	 9.9413 	 9.4850 	 1.6803 	 57.8688 	 2.0275 	 53.8998 	 18.3211 	 3.9690 	 2.9900
  0.3700 	 1.5100 	 9.9448 	 9.4833 	 1.6763 	 57.7704 	 2.0257 	 53.9848 	 17.4046 	 3.7856 	 2.9900
  0.3700 	 1.5150 	 9.9483 	 9.4816 	 1.6723 	 57.6602 	 2.0239 	 54.0693 	 16.4440 	 3.5909 	 2.9900
  0.3700 	 1.5200 	 9.9517 	 9.4800 	 1.6683 	 57.5364 	 2.0221 	 54.1535 	 15.4309 	 3.3830 	 2.9900
  0.3700 	 1.5250 	 9.9552 	 9.4783 	 1.6644 	 57.3965 	 2.0203 	 54.2372 	 14.3541 	 3.1593 	 2.9900
  0.3700 	 1.5300 	 9.9586 	 9.4767 	 1.6605 	 57.2368 	 2.0185 	 54.3205 	 13.1980 	 2.9162 	 2.9900
  0.3700 	 1.5350 	 9.9620 	 9.4751 	 1.6566 	 57.0519 	 2.0168 	 54.4035 	 11.9395 	 2.6484 	 2.9900
  0.3700 	 1.5400 	 9.9654 	 9.4735 	 1.6527 	 56.8335 	 2.0151 	 54.4860 	 10.5419 	 2.3474 	 2.9900
  0.3700 	 1.5450 	 9.9687 	 9.4719 	 1.6488 	 56.5666 	 2.0133 	 54.5682 	 8.9400 	 1.9984 	 2.9900
  0.3700 	 1.5500 	 9.9720 	 9.4703 	 1.6450 	 56.2195 	 2.0116 	 54.6499 	 6.9947 	 1.5696 	 2.9900
  0.3700 	 1.3750 	 9.8373 	 9.5511 	 1.7985 	 58.3737 	 2.0861 	 51.4855 	 35.6588 	 6.8882 	 3.0000
  0.3700 	 1.3800 	 9.8415 	 9.5490 	 1.7937 	 58.3941 	 2.0838 	 51.5821 	 35.1002 	 6.8119 	 3.0000
  0.3700 	 1.3850 	 9.8457 	 9.5470 	 1.7890 	 58.4120 	 2.0814 	 51.6783 	 34.5367 	 6.7337 	 3.0000
  0.3700 	 1.3900 	 9.8499 	 9.5450 	 1.7843 	 58.4273 	 2.0791 	 51.7740 	 33.9683 	 6.6533 	 3.0000
  0.3700 	 1.3950 	 9.8540 	 9.5430 	 1.7796 	 58.4401 	 2.0769 	 51.8692 	 33.3944 	 6.5709 	 3.0000
  0.3700 	 1.4000 	 9.8581 	 9.5410 	 1.7750 	 58.4502 	 2.0746 	 51.9640 	 32.8149 	 6.4862 	 3.0000
  0.3700 	 1.4050 	 9.8621 	 9.5390 	 1.7704 	 58.4575 	 2.0724 	 52.0582 	 32.2293 	 6.3993 	 3.0000
  0.3700 	 1.4100 	 9.8662 	 9.5370 	 1.7658 	 58.4620 	 2.0702 	 52.1520 	 31.6373 	 6.3100 	 3.0000
  0.3700 	 1.4150 	 9.8702 	 9.5351 	 1.7613 	 58.4636 	 2.0680 	 52.2454 	 31.0385 	 6.2182 	 3.0000
  0.3700 	 1.4200 	 9.8742 	 9.5332 	 1.7568 	 58.4621 	 2.0658 	 52.3382 	 30.4323 	 6.1239 	 3.0000
  0.3700 	 1.4250 	 9.8781 	 9.5313 	 1.7523 	 58.4575 	 2.0636 	 52.4307 	 29.8184 	 6.0269 	 3.0000
  0.3700 	 1.4300 	 9.8820 	 9.5294 	 1.7479 	 58.4496 	 2.0615 	 52.5226 	 29.1961 	 5.9270 	 3.0000
  0.3700 	 1.4350 	 9.8859 	 9.5275 	 1.7434 	 58.4383 	 2.0594 	 52.6141 	 28.5650 	 5.8242 	 3.0000
  0.3700 	 1.4400 	 9.8898 	 9.5256 	 1.7390 	 58.4234 	 2.0573 	 52.7052 	 27.9242 	 5.7182 	 3.0000
  0.3700 	 1.4450 	 9.8936 	 9.5238 	 1.7347 	 58.4048 	 2.0552 	 52.7958 	 27.2732 	 5.6090 	 3.0000
  0.3700 	 1.4500 	 9.8975 	 9.5219 	 1.7303 	 58.3822 	 2.0532 	 52.8859 	 26.6111 	 5.4963 	 3.0000
  0.3700 	 1.4550 	 9.9012 	 9.5201 	 1.7260 	 58.3555 	 2.0512 	 52.9756 	 25.9370 	 5.3799 	 3.0000
  0.3700 	 1.4600 	 9.9050 	 9.5183 	 1.7217 	 58.3245 	 2.0491 	 53.0649 	 25.2499 	 5.2596 	 3.0000
  0.3700 	 1.4650 	 9.9087 	 9.5165 	 1.7175 	 58.2888 	 2.0472 	 53.1537 	 24.5486 	 5.1351 	 3.0000
  0.3700 	 1.4700 	 9.9125 	 9.5147 	 1.7133 	 58.2482 	 2.0452 	 53.2421 	 23.8319 	 5.0060 	 3.0000
  0.3700 	 1.4750 	 9.9161 	 9.5129 	 1.7091 	 58.2023 	 2.0432 	 53.3301 	 23.0982 	 4.8721 	 3.0000
  0.3700 	 1.4800 	 9.9198 	 9.5112 	 1.7049 	 58.1506 	 2.0413 	 53.4177 	 22.3459 	 4.7330 	 3.0000
  0.3700 	 1.4850 	 9.9234 	 9.5094 	 1.7007 	 58.0928 	 2.0394 	 53.5048 	 21.5729 	 4.5881 	 3.0000
  0.3700 	 1.4900 	 9.9271 	 9.5077 	 1.6966 	 58.0283 	 2.0375 	 53.5915 	 20.7768 	 4.4369 	 3.0000
  0.3700 	 1.4950 	 9.9306 	 9.5060 	 1.6925 	 57.9565 	 2.0356 	 53.6777 	 19.9549 	 4.2787 	 3.0000
  0.3700 	 1.5000 	 9.9342 	 9.5043 	 1.6884 	 57.8764 	 2.0337 	 53.7636 	 19.1038 	 4.1128 	 3.0000
  0.3700 	 1.5050 	 9.9378 	 9.5026 	 1.6844 	 57.7872 	 2.0318 	 53.8490 	 18.2192 	 3.9382 	 3.0000
  0.3700 	 1.5100 	 9.9413 	 9.5009 	 1.6803 	 57.6877 	 2.0300 	 53.9341 	 17.2961 	 3.7536 	 3.0000
  0.3700 	 1.5150 	 9.9448 	 9.4992 	 1.6763 	 57.5762 	 2.0282 	 54.0187 	 16.3277 	 3.5575 	 3.0000
  0.3700 	 1.5200 	 9.9482 	 9.4975 	 1.6724 	 57.4509 	 2.0264 	 54.1029 	 15.3055 	 3.3480 	 3.0000
  0.3700 	 1.5250 	 9.9517 	 9.4959 	 1.6684 	 57.3090 	 2.0246 	 54.1867 	 14.2177 	 3.1223 	 3.0000
  0.3700 	 1.5300 	 9.9551 	 9.4943 	 1.6645 	 57.1468 	 2.0228 	 54.2701 	 13.0478 	 2.8767 	 3.0000
  0.3700 	 1.5350 	 9.9585 	 9.4926 	 1.6606 	 56.9585 	 2.0211 	 54.3531 	 11.7715 	 2.6054 	 3.0000
  0.3700 	 1.5400 	 9.9619 	 9.4910 	 1.6567 	 56.7352 	 2.0193 	 54.4357 	 10.3491 	 2.2994 	 3.0000
  0.3700 	 1.5450 	 9.9653 	 9.4894 	 1.6528 	 56.4605 	 2.0176 	 54.5180 	 8.7095 	 1.9426 	 3.0000
  0.3700 	 1.5500 	 9.9686 	 9.4878 	 1.6490 	 56.0986 	 2.0159 	 54.5998 	 6.6944 	 1.4989 	 3.0000
