# d(e,e'p)n Central Kinematics Summary
# Beam Energy (Ei) = 11.000 GeV
# 4-Momentum Transfer (Q2) = 2.70 - 2.79 GeV (step: 0.01) 
# x-Bjorken (xbj) = 1.00 - 2.00 (step: 0.01) 
# Missing Momentum (Pr) = 0.35 - 0.37 GeV (step: 0.01) 
# Hadron Out-of-Plane Angle (phi): rotation axis is q-vector 
# thp = thq + thpq, phi = 180  (q-vector scatters at smaller  angles than proton scattering angle)# 
# # 
# Tensor Polarized Deuterium: d(e,e'p) kinematics :
# 
# Header Definitions: 
# Pr   : Central Missing Momentum [GeV/c] 
# xbj  : Bjorken x  
# kf   : e- final momentum [GeV/c] 
# th_e : e- scattering angle [deg] 
# Pf   : final proton momentum [GeV/c] 
# th_p : proton scattering angle [deg] 
# q    : 3-momentum transfer [GeV] 
# th_q : relative angle between q-vector and +z (lab)  [deg] 
# th_nq: relative angle between q-vector and recoil neutron [deg] 
# th_pq: relative angle between q-vector and knocked-out proton [deg] 
# Q2   : 4-Momentum Transfer [GeV^2]  
# 
#! Pr[f,0]/ 	  xbj[f,1]/ 	 kf[f,2]/ 	 th_e[f,3]/ 	 Pf[f,4]/ 	 th_p[f,5]/ 	 q[f,6]/ 	 th_q[f,7]/ 	 th_nq[f,8]/ 	 th_pq[f,9]/ 	 Q2[f,10]/
  0.3500 	 1.3700 	 9.9498 	 9.0084 	 1.6788 	 60.0296 	 1.9501 	 53.0241 	 35.8036 	 7.0055 	 2.7000
  0.3500 	 1.3750 	 9.9536 	 9.0067 	 1.6744 	 60.0460 	 1.9481 	 53.1192 	 35.2370 	 6.9268 	 2.7000
  0.3500 	 1.3800 	 9.9574 	 9.0050 	 1.6701 	 60.0598 	 1.9460 	 53.2138 	 34.6657 	 6.8460 	 2.7000
  0.3500 	 1.3850 	 9.9611 	 9.0033 	 1.6658 	 60.0710 	 1.9440 	 53.3078 	 34.0892 	 6.7632 	 2.7000
  0.3500 	 1.3900 	 9.9649 	 9.0016 	 1.6615 	 60.0796 	 1.9420 	 53.4014 	 33.5072 	 6.6781 	 2.7000
  0.3500 	 1.3950 	 9.9686 	 8.9999 	 1.6572 	 60.0854 	 1.9401 	 53.4945 	 32.9195 	 6.5908 	 2.7000
  0.3500 	 1.4000 	 9.9723 	 8.9982 	 1.6530 	 60.0884 	 1.9381 	 53.5872 	 32.3256 	 6.5012 	 2.7000
  0.3500 	 1.4050 	 9.9759 	 8.9966 	 1.6488 	 60.0884 	 1.9362 	 53.6793 	 31.7252 	 6.4091 	 2.7000
  0.3500 	 1.4100 	 9.9796 	 8.9949 	 1.6446 	 60.0855 	 1.9342 	 53.7710 	 31.1179 	 6.3145 	 2.7000
  0.3500 	 1.4150 	 9.9832 	 8.9933 	 1.6404 	 60.0794 	 1.9323 	 53.8622 	 30.5031 	 6.2172 	 2.7000
  0.3500 	 1.4200 	 9.9867 	 8.9917 	 1.6363 	 60.0701 	 1.9305 	 53.9530 	 29.8803 	 6.1171 	 2.7000
  0.3500 	 1.4250 	 9.9903 	 8.9901 	 1.6322 	 60.0574 	 1.9286 	 54.0433 	 29.2491 	 6.0142 	 2.7000
  0.3500 	 1.4300 	 9.9938 	 8.9885 	 1.6281 	 60.0412 	 1.9268 	 54.1331 	 28.6088 	 5.9081 	 2.7000
  0.3500 	 1.4350 	 9.9973 	 8.9869 	 1.6241 	 60.0213 	 1.9249 	 54.2225 	 27.9587 	 5.7989 	 2.7000
  0.3500 	 1.4400 	 10.0008 	 8.9854 	 1.6201 	 59.9976 	 1.9231 	 54.3114 	 27.2980 	 5.6862 	 2.7000
  0.3500 	 1.4450 	 10.0043 	 8.9838 	 1.6161 	 59.9698 	 1.9213 	 54.3998 	 26.6259 	 5.5700 	 2.7000
  0.3500 	 1.4500 	 10.0077 	 8.9823 	 1.6121 	 59.9378 	 1.9195 	 54.4879 	 25.9416 	 5.4499 	 2.7000
  0.3500 	 1.4550 	 10.0111 	 8.9807 	 1.6081 	 59.9012 	 1.9178 	 54.5754 	 25.2439 	 5.3258 	 2.7000
  0.3500 	 1.4600 	 10.0145 	 8.9792 	 1.6042 	 59.8598 	 1.9160 	 54.6626 	 24.5316 	 5.1972 	 2.7000
  0.3500 	 1.4650 	 10.0179 	 8.9777 	 1.6003 	 59.8133 	 1.9143 	 54.7493 	 23.8034 	 5.0640 	 2.7000
  0.3500 	 1.4700 	 10.0212 	 8.9762 	 1.5965 	 59.7613 	 1.9126 	 54.8355 	 23.0576 	 4.9258 	 2.7000
  0.3500 	 1.4750 	 10.0245 	 8.9747 	 1.5926 	 59.7034 	 1.9109 	 54.9213 	 22.2926 	 4.7820 	 2.7000
  0.3500 	 1.4800 	 10.0278 	 8.9732 	 1.5888 	 59.6390 	 1.9092 	 55.0067 	 21.5062 	 4.6323 	 2.7000
  0.3500 	 1.4850 	 10.0311 	 8.9718 	 1.5850 	 59.5676 	 1.9076 	 55.0917 	 20.6958 	 4.4759 	 2.7000
  0.3500 	 1.4900 	 10.0344 	 8.9703 	 1.5812 	 59.4885 	 1.9059 	 55.1762 	 19.8585 	 4.3123 	 2.7000
  0.3500 	 1.4950 	 10.0376 	 8.9689 	 1.5774 	 59.4009 	 1.9043 	 55.2604 	 18.9906 	 4.1405 	 2.7000
  0.3500 	 1.5000 	 10.0408 	 8.9674 	 1.5737 	 59.3035 	 1.9027 	 55.3441 	 18.0878 	 3.9595 	 2.7000
  0.3500 	 1.5050 	 10.0440 	 8.9660 	 1.5700 	 59.1953 	 1.9010 	 55.4274 	 17.1443 	 3.7679 	 2.7000
  0.3500 	 1.5100 	 10.0471 	 8.9646 	 1.5663 	 59.0744 	 1.8995 	 55.5102 	 16.1530 	 3.5642 	 2.7000
  0.3500 	 1.5150 	 10.0503 	 8.9632 	 1.5626 	 58.9386 	 1.8979 	 55.5927 	 15.1044 	 3.3459 	 2.7000
  0.3500 	 1.5200 	 10.0534 	 8.9618 	 1.5590 	 58.7850 	 1.8963 	 55.6747 	 13.9856 	 3.1103 	 2.7000
  0.3500 	 1.5250 	 10.0565 	 8.9604 	 1.5554 	 58.6092 	 1.8948 	 55.7564 	 12.7780 	 2.8528 	 2.7000
  0.3500 	 1.5300 	 10.0596 	 8.9590 	 1.5518 	 58.4047 	 1.8932 	 55.8376 	 11.4535 	 2.5670 	 2.7000
  0.3500 	 1.5350 	 10.0627 	 8.9577 	 1.5482 	 58.1606 	 1.8917 	 55.9185 	 9.9654 	 2.2421 	 2.7000
  0.3500 	 1.5400 	 10.0657 	 8.9563 	 1.5446 	 57.8567 	 1.8902 	 55.9990 	 8.2254 	 1.8577 	 2.7000
  0.3500 	 1.5450 	 10.0687 	 8.9549 	 1.5411 	 57.4435 	 1.8887 	 56.0790 	 6.0186 	 1.3645 	 2.7000
  0.3500 	 1.3700 	 9.9459 	 9.0269 	 1.6833 	 59.9475 	 1.9548 	 52.9675 	 35.7631 	 6.9800 	 2.7100
  0.3500 	 1.3750 	 9.9497 	 9.0252 	 1.6789 	 59.9638 	 1.9527 	 53.0626 	 35.1951 	 6.9012 	 2.7100
  0.3500 	 1.3800 	 9.9535 	 9.0234 	 1.6745 	 59.9776 	 1.9507 	 53.1573 	 34.6222 	 6.8203 	 2.7100
  0.3500 	 1.3850 	 9.9573 	 9.0217 	 1.6702 	 59.9888 	 1.9486 	 53.2514 	 34.0441 	 6.7373 	 2.7100
  0.3500 	 1.3900 	 9.9610 	 9.0200 	 1.6659 	 59.9973 	 1.9466 	 53.3451 	 33.4606 	 6.6522 	 2.7100
  0.3500 	 1.3950 	 9.9648 	 9.0183 	 1.6616 	 60.0030 	 1.9447 	 53.4383 	 32.8712 	 6.5648 	 2.7100
  0.3500 	 1.4000 	 9.9685 	 9.0166 	 1.6573 	 60.0060 	 1.9427 	 53.5310 	 32.2755 	 6.4750 	 2.7100
  0.3500 	 1.4050 	 9.9721 	 9.0150 	 1.6531 	 60.0059 	 1.9407 	 53.6232 	 31.6733 	 6.3827 	 2.7100
  0.3500 	 1.4100 	 9.9758 	 9.0133 	 1.6489 	 60.0029 	 1.9388 	 53.7150 	 31.0640 	 6.2879 	 2.7100
  0.3500 	 1.4150 	 9.9794 	 9.0117 	 1.6448 	 59.9967 	 1.9369 	 53.8063 	 30.4473 	 6.1904 	 2.7100
  0.3500 	 1.4200 	 9.9830 	 9.0101 	 1.6406 	 59.9873 	 1.9350 	 53.8971 	 29.8224 	 6.0902 	 2.7100
  0.3500 	 1.4250 	 9.9866 	 9.0085 	 1.6365 	 59.9744 	 1.9331 	 53.9875 	 29.1890 	 5.9870 	 2.7100
  0.3500 	 1.4300 	 9.9901 	 9.0069 	 1.6324 	 59.9581 	 1.9313 	 54.0774 	 28.5464 	 5.8807 	 2.7100
  0.3500 	 1.4350 	 9.9936 	 9.0053 	 1.6284 	 59.9380 	 1.9295 	 54.1668 	 27.8939 	 5.7712 	 2.7100
  0.3500 	 1.4400 	 9.9971 	 9.0037 	 1.6243 	 59.9141 	 1.9276 	 54.2558 	 27.2306 	 5.6582 	 2.7100
  0.3500 	 1.4450 	 10.0006 	 9.0021 	 1.6203 	 59.8860 	 1.9258 	 54.3443 	 26.5559 	 5.5417 	 2.7100
  0.3500 	 1.4500 	 10.0040 	 9.0006 	 1.6163 	 59.8537 	 1.9240 	 54.4324 	 25.8687 	 5.4213 	 2.7100
  0.3500 	 1.4550 	 10.0075 	 8.9990 	 1.6124 	 59.8168 	 1.9223 	 54.5201 	 25.1679 	 5.2967 	 2.7100
  0.3500 	 1.4600 	 10.0109 	 8.9975 	 1.6085 	 59.7751 	 1.9205 	 54.6073 	 24.4523 	 5.1678 	 2.7100
  0.3500 	 1.4650 	 10.0142 	 8.9960 	 1.6045 	 59.7282 	 1.9188 	 54.6941 	 23.7205 	 5.0341 	 2.7100
  0.3500 	 1.4700 	 10.0176 	 8.9945 	 1.6007 	 59.6757 	 1.9171 	 54.7804 	 22.9710 	 4.8953 	 2.7100
  0.3500 	 1.4750 	 10.0209 	 8.9930 	 1.5968 	 59.6173 	 1.9154 	 54.8663 	 22.2019 	 4.7510 	 2.7100
  0.3500 	 1.4800 	 10.0242 	 8.9915 	 1.5930 	 59.5523 	 1.9137 	 54.9518 	 21.4109 	 4.6006 	 2.7100
  0.3500 	 1.4850 	 10.0275 	 8.9900 	 1.5891 	 59.4803 	 1.9120 	 55.0368 	 20.5955 	 4.4434 	 2.7100
  0.3500 	 1.4900 	 10.0308 	 8.9885 	 1.5854 	 59.4004 	 1.9103 	 55.1214 	 19.7527 	 4.2789 	 2.7100
  0.3500 	 1.4950 	 10.0340 	 8.9871 	 1.5816 	 59.3118 	 1.9087 	 55.2056 	 18.8786 	 4.1061 	 2.7100
  0.3500 	 1.5000 	 10.0372 	 8.9856 	 1.5778 	 59.2134 	 1.9071 	 55.2894 	 17.9688 	 3.9239 	 2.7100
  0.3500 	 1.5050 	 10.0404 	 8.9842 	 1.5741 	 59.1038 	 1.9055 	 55.3728 	 17.0172 	 3.7310 	 2.7100
  0.3500 	 1.5100 	 10.0436 	 8.9828 	 1.5704 	 58.9813 	 1.9039 	 55.4557 	 16.0165 	 3.5255 	 2.7100
  0.3500 	 1.5150 	 10.0468 	 8.9814 	 1.5667 	 58.8436 	 1.9023 	 55.5383 	 14.9568 	 3.3053 	 2.7100
  0.3500 	 1.5200 	 10.0499 	 8.9800 	 1.5631 	 58.6874 	 1.9007 	 55.6204 	 13.8242 	 3.0670 	 2.7100
  0.3500 	 1.5250 	 10.0530 	 8.9786 	 1.5594 	 58.5083 	 1.8991 	 55.7022 	 12.5993 	 2.8061 	 2.7100
  0.3500 	 1.5300 	 10.0561 	 8.9772 	 1.5558 	 58.2992 	 1.8976 	 55.7835 	 11.2516 	 2.5157 	 2.7100
  0.3500 	 1.5350 	 10.0592 	 8.9758 	 1.5522 	 58.0484 	 1.8961 	 55.8644 	 9.7303 	 2.1840 	 2.7100
  0.3500 	 1.5400 	 10.0622 	 8.9744 	 1.5487 	 57.7330 	 1.8946 	 55.9449 	 7.9359 	 1.7881 	 2.7100
  0.3500 	 1.5450 	 10.0653 	 8.9731 	 1.5451 	 57.2944 	 1.8931 	 56.0251 	 5.6121 	 1.2693 	 2.7100
  0.3500 	 1.3700 	 9.9420 	 9.0453 	 1.6877 	 59.8656 	 1.9594 	 52.9110 	 35.7227 	 6.9546 	 2.7200
  0.3500 	 1.3750 	 9.9458 	 9.0436 	 1.6833 	 59.8819 	 1.9574 	 53.0062 	 35.1532 	 6.8757 	 2.7200
  0.3500 	 1.3800 	 9.9497 	 9.0419 	 1.6789 	 59.8957 	 1.9553 	 53.1009 	 34.5788 	 6.7947 	 2.7200
  0.3500 	 1.3850 	 9.9534 	 9.0401 	 1.6746 	 59.9068 	 1.9533 	 53.1952 	 33.9991 	 6.7117 	 2.7200
  0.3500 	 1.3900 	 9.9572 	 9.0384 	 1.6703 	 59.9153 	 1.9513 	 53.2889 	 33.4139 	 6.6264 	 2.7200
  0.3500 	 1.3950 	 9.9610 	 9.0367 	 1.6660 	 59.9210 	 1.9493 	 53.3822 	 32.8228 	 6.5388 	 2.7200
  0.3500 	 1.4000 	 9.9647 	 9.0350 	 1.6617 	 59.9238 	 1.9473 	 53.4750 	 32.2255 	 6.4489 	 2.7200
  0.3500 	 1.4050 	 9.9683 	 9.0334 	 1.6575 	 59.9237 	 1.9453 	 53.5673 	 31.6214 	 6.3565 	 2.7200
  0.3500 	 1.4100 	 9.9720 	 9.0317 	 1.6533 	 59.9206 	 1.9434 	 53.6591 	 31.0102 	 6.2615 	 2.7200
  0.3500 	 1.4150 	 9.9756 	 9.0300 	 1.6491 	 59.9143 	 1.9415 	 53.7505 	 30.3914 	 6.1638 	 2.7200
  0.3500 	 1.4200 	 9.9792 	 9.0284 	 1.6449 	 59.9047 	 1.9396 	 53.8414 	 29.7645 	 6.0634 	 2.7200
  0.3500 	 1.4250 	 9.9828 	 9.0268 	 1.6408 	 59.8918 	 1.9377 	 53.9318 	 29.1289 	 5.9599 	 2.7200
  0.3500 	 1.4300 	 9.9864 	 9.0252 	 1.6367 	 59.8752 	 1.9358 	 54.0218 	 28.4840 	 5.8534 	 2.7200
  0.3500 	 1.4350 	 9.9899 	 9.0236 	 1.6327 	 59.8550 	 1.9340 	 54.1113 	 27.8290 	 5.7436 	 2.7200
  0.3500 	 1.4400 	 9.9934 	 9.0220 	 1.6286 	 59.8308 	 1.9321 	 54.2004 	 27.1632 	 5.6304 	 2.7200
  0.3500 	 1.4450 	 9.9969 	 9.0204 	 1.6246 	 59.8025 	 1.9303 	 54.2890 	 26.4858 	 5.5135 	 2.7200
  0.3500 	 1.4500 	 10.0004 	 9.0189 	 1.6206 	 59.7699 	 1.9285 	 54.3772 	 25.7957 	 5.3928 	 2.7200
  0.3500 	 1.4550 	 10.0038 	 9.0173 	 1.6166 	 59.7327 	 1.9268 	 54.4649 	 25.0918 	 5.2678 	 2.7200
  0.3500 	 1.4600 	 10.0072 	 9.0158 	 1.6127 	 59.6907 	 1.9250 	 54.5522 	 24.3729 	 5.1385 	 2.7200
  0.3500 	 1.4650 	 10.0106 	 9.0142 	 1.6088 	 59.6433 	 1.9233 	 54.6390 	 23.6376 	 5.0043 	 2.7200
  0.3500 	 1.4700 	 10.0140 	 9.0127 	 1.6049 	 59.5904 	 1.9215 	 54.7255 	 22.8842 	 4.8650 	 2.7200
  0.3500 	 1.4750 	 10.0173 	 9.0112 	 1.6010 	 59.5315 	 1.9198 	 54.8114 	 22.1109 	 4.7200 	 2.7200
  0.3500 	 1.4800 	 10.0206 	 9.0097 	 1.5971 	 59.4659 	 1.9181 	 54.8970 	 21.3154 	 4.5689 	 2.7200
  0.3500 	 1.4850 	 10.0239 	 9.0082 	 1.5933 	 59.3932 	 1.9164 	 54.9821 	 20.4950 	 4.4111 	 2.7200
  0.3500 	 1.4900 	 10.0272 	 9.0068 	 1.5895 	 59.3125 	 1.9148 	 55.0668 	 19.6465 	 4.2457 	 2.7200
  0.3500 	 1.4950 	 10.0305 	 9.0053 	 1.5857 	 59.2229 	 1.9131 	 55.1511 	 18.7662 	 4.0718 	 2.7200
  0.3500 	 1.5000 	 10.0337 	 9.0038 	 1.5820 	 59.1234 	 1.9115 	 55.2349 	 17.8492 	 3.8884 	 2.7200
  0.3500 	 1.5050 	 10.0369 	 9.0024 	 1.5782 	 59.0124 	 1.9099 	 55.3184 	 16.8895 	 3.6941 	 2.7200
  0.3500 	 1.5100 	 10.0401 	 9.0010 	 1.5745 	 58.8883 	 1.9083 	 55.4014 	 15.8792 	 3.4869 	 2.7200
  0.3500 	 1.5150 	 10.0433 	 8.9995 	 1.5708 	 58.7486 	 1.9067 	 55.4840 	 14.8080 	 3.2645 	 2.7200
  0.3500 	 1.5200 	 10.0464 	 8.9981 	 1.5672 	 58.5898 	 1.9051 	 55.5662 	 13.6613 	 3.0236 	 2.7200
  0.3500 	 1.5250 	 10.0495 	 8.9967 	 1.5635 	 58.4073 	 1.9035 	 55.6480 	 12.4183 	 2.7592 	 2.7200
  0.3500 	 1.5300 	 10.0526 	 8.9953 	 1.5599 	 58.1934 	 1.9020 	 55.7294 	 11.0464 	 2.4640 	 2.7200
  0.3500 	 1.5350 	 10.0557 	 8.9939 	 1.5563 	 57.9354 	 1.9004 	 55.8105 	 9.4898 	 2.1249 	 2.7200
  0.3500 	 1.5400 	 10.0588 	 8.9926 	 1.5527 	 57.6075 	 1.8989 	 55.8911 	 7.6360 	 1.7164 	 2.7200
  0.3500 	 1.5450 	 10.0618 	 8.9912 	 1.5492 	 57.1389 	 1.8974 	 55.9713 	 5.1748 	 1.1676 	 2.7200
  0.3500 	 1.3700 	 9.9381 	 9.0638 	 1.6922 	 59.7841 	 1.9641 	 52.8547 	 35.6823 	 6.9294 	 2.7300
  0.3500 	 1.3750 	 9.9420 	 9.0620 	 1.6877 	 59.8004 	 1.9620 	 52.9500 	 35.1113 	 6.8504 	 2.7300
  0.3500 	 1.3800 	 9.9458 	 9.0603 	 1.6833 	 59.8141 	 1.9599 	 53.0448 	 34.5354 	 6.7693 	 2.7300
  0.3500 	 1.3850 	 9.9496 	 9.0585 	 1.6790 	 59.8252 	 1.9579 	 53.1391 	 33.9542 	 6.6861 	 2.7300
  0.3500 	 1.3900 	 9.9534 	 9.0568 	 1.6747 	 59.8336 	 1.9559 	 53.2329 	 33.3673 	 6.6007 	 2.7300
  0.3500 	 1.3950 	 9.9571 	 9.0551 	 1.6704 	 59.8392 	 1.9539 	 53.3262 	 32.7745 	 6.5130 	 2.7300
  0.3500 	 1.4000 	 9.9609 	 9.0534 	 1.6661 	 59.8420 	 1.9519 	 53.4191 	 32.1754 	 6.4229 	 2.7300
  0.3500 	 1.4050 	 9.9646 	 9.0517 	 1.6618 	 59.8418 	 1.9499 	 53.5115 	 31.5695 	 6.3304 	 2.7300
  0.3500 	 1.4100 	 9.9682 	 9.0500 	 1.6576 	 59.8386 	 1.9480 	 53.6034 	 30.9564 	 6.2352 	 2.7300
  0.3500 	 1.4150 	 9.9719 	 9.0484 	 1.6534 	 59.8322 	 1.9460 	 53.6948 	 30.3356 	 6.1374 	 2.7300
  0.3500 	 1.4200 	 9.9755 	 9.0467 	 1.6493 	 59.8225 	 1.9441 	 53.7858 	 29.7066 	 6.0367 	 2.7300
  0.3500 	 1.4250 	 9.9791 	 9.0451 	 1.6451 	 59.8094 	 1.9422 	 53.8763 	 29.0688 	 5.9330 	 2.7300
  0.3500 	 1.4300 	 9.9827 	 9.0435 	 1.6410 	 59.7927 	 1.9404 	 53.9664 	 28.4216 	 5.8263 	 2.7300
  0.3500 	 1.4350 	 9.9862 	 9.0419 	 1.6369 	 59.7722 	 1.9385 	 54.0560 	 27.7642 	 5.7162 	 2.7300
  0.3500 	 1.4400 	 9.9897 	 9.0403 	 1.6329 	 59.7478 	 1.9367 	 54.1451 	 27.0958 	 5.6027 	 2.7300
  0.3500 	 1.4450 	 9.9932 	 9.0387 	 1.6288 	 59.7193 	 1.9348 	 54.2338 	 26.4156 	 5.4855 	 2.7300
  0.3500 	 1.4500 	 9.9967 	 9.0371 	 1.6248 	 59.6864 	 1.9330 	 54.3221 	 25.7226 	 5.3644 	 2.7300
  0.3500 	 1.4550 	 10.0001 	 9.0356 	 1.6209 	 59.6489 	 1.9313 	 54.4099 	 25.0156 	 5.2391 	 2.7300
  0.3500 	 1.4600 	 10.0036 	 9.0340 	 1.6169 	 59.6065 	 1.9295 	 54.4972 	 24.2934 	 5.1093 	 2.7300
  0.3500 	 1.4650 	 10.0070 	 9.0325 	 1.6130 	 59.5588 	 1.9277 	 54.5842 	 23.5545 	 4.9746 	 2.7300
  0.3500 	 1.4700 	 10.0103 	 9.0309 	 1.6091 	 59.5054 	 1.9260 	 54.6706 	 22.7973 	 4.8348 	 2.7300
  0.3500 	 1.4750 	 10.0137 	 9.0294 	 1.6052 	 59.4459 	 1.9243 	 54.7567 	 22.0198 	 4.6892 	 2.7300
  0.3500 	 1.4800 	 10.0170 	 9.0279 	 1.6013 	 59.3798 	 1.9226 	 54.8423 	 21.2196 	 4.5374 	 2.7300
  0.3500 	 1.4850 	 10.0203 	 9.0264 	 1.5975 	 59.3063 	 1.9209 	 54.9275 	 20.3941 	 4.3788 	 2.7300
  0.3500 	 1.4900 	 10.0236 	 9.0249 	 1.5937 	 59.2248 	 1.9192 	 55.0123 	 19.5400 	 4.2125 	 2.7300
  0.3500 	 1.4950 	 10.0269 	 9.0235 	 1.5899 	 59.1343 	 1.9175 	 55.0966 	 18.6533 	 4.0376 	 2.7300
  0.3500 	 1.5000 	 10.0301 	 9.0220 	 1.5861 	 59.0336 	 1.9159 	 55.1806 	 17.7291 	 3.8530 	 2.7300
  0.3500 	 1.5050 	 10.0334 	 9.0206 	 1.5824 	 58.9213 	 1.9143 	 55.2641 	 16.7610 	 3.6572 	 2.7300
  0.3500 	 1.5100 	 10.0366 	 9.0191 	 1.5786 	 58.7955 	 1.9126 	 55.3472 	 15.7409 	 3.4483 	 2.7300
  0.3500 	 1.5150 	 10.0397 	 9.0177 	 1.5749 	 58.6536 	 1.9110 	 55.4299 	 14.6579 	 3.2237 	 2.7300
  0.3500 	 1.5200 	 10.0429 	 9.0163 	 1.5713 	 58.4922 	 1.9095 	 55.5122 	 13.4968 	 2.9800 	 2.7300
  0.3500 	 1.5250 	 10.0460 	 9.0148 	 1.5676 	 58.3061 	 1.9079 	 55.5941 	 12.2351 	 2.7121 	 2.7300
  0.3500 	 1.5300 	 10.0491 	 9.0134 	 1.5640 	 58.0872 	 1.9063 	 55.6756 	 10.8379 	 2.4117 	 2.7300
  0.3500 	 1.5350 	 10.0522 	 9.0121 	 1.5604 	 57.8215 	 1.9048 	 55.7566 	 9.2435 	 2.0649 	 2.7300
  0.3500 	 1.5400 	 10.0553 	 9.0107 	 1.5568 	 57.4798 	 1.9033 	 55.8373 	 7.3245 	 1.6425 	 2.7300
  0.3500 	 1.3700 	 9.9342 	 9.0822 	 1.6966 	 59.7028 	 1.9687 	 52.7985 	 35.6419 	 6.9043 	 2.7400
  0.3500 	 1.3750 	 9.9381 	 9.0804 	 1.6922 	 59.7191 	 1.9666 	 52.8939 	 35.0695 	 6.8252 	 2.7400
  0.3500 	 1.3800 	 9.9419 	 9.0786 	 1.6878 	 59.7328 	 1.9646 	 52.9887 	 34.4920 	 6.7441 	 2.7400
  0.3500 	 1.3850 	 9.9458 	 9.0769 	 1.6834 	 59.7438 	 1.9625 	 53.0831 	 33.9092 	 6.6607 	 2.7400
  0.3500 	 1.3900 	 9.9495 	 9.0752 	 1.6791 	 59.7522 	 1.9605 	 53.1770 	 33.3207 	 6.5752 	 2.7400
  0.3500 	 1.3950 	 9.9533 	 9.0734 	 1.6747 	 59.7578 	 1.9585 	 53.2704 	 32.7262 	 6.4874 	 2.7400
  0.3500 	 1.4000 	 9.9570 	 9.0717 	 1.6705 	 59.7605 	 1.9565 	 53.3634 	 32.1253 	 6.3971 	 2.7400
  0.3500 	 1.4050 	 9.9608 	 9.0700 	 1.6662 	 59.7602 	 1.9545 	 53.4558 	 31.5176 	 6.3044 	 2.7400
  0.3500 	 1.4100 	 9.9644 	 9.0684 	 1.6620 	 59.7569 	 1.9525 	 53.5478 	 30.9026 	 6.2091 	 2.7400
  0.3500 	 1.4150 	 9.9681 	 9.0667 	 1.6578 	 59.7504 	 1.9506 	 53.6393 	 30.2798 	 6.1110 	 2.7400
  0.3500 	 1.4200 	 9.9717 	 9.0650 	 1.6536 	 59.7405 	 1.9487 	 53.7304 	 29.6487 	 6.0102 	 2.7400
  0.3500 	 1.4250 	 9.9753 	 9.0634 	 1.6494 	 59.7273 	 1.9468 	 53.8210 	 29.0087 	 5.9063 	 2.7400
  0.3500 	 1.4300 	 9.9789 	 9.0618 	 1.6453 	 59.7104 	 1.9449 	 53.9111 	 28.3591 	 5.7993 	 2.7400
  0.3500 	 1.4350 	 9.9825 	 9.0601 	 1.6412 	 59.6897 	 1.9430 	 54.0008 	 27.6993 	 5.6890 	 2.7400
  0.3500 	 1.4400 	 9.9860 	 9.0585 	 1.6371 	 59.6651 	 1.9412 	 54.0900 	 27.0283 	 5.5752 	 2.7400
  0.3500 	 1.4450 	 9.9895 	 9.0569 	 1.6331 	 59.6364 	 1.9393 	 54.1788 	 26.3454 	 5.4576 	 2.7400
  0.3500 	 1.4500 	 9.9930 	 9.0554 	 1.6291 	 59.6032 	 1.9375 	 54.2671 	 25.6495 	 5.3361 	 2.7400
  0.3500 	 1.4550 	 9.9965 	 9.0538 	 1.6251 	 59.5654 	 1.9357 	 54.3550 	 24.9394 	 5.2104 	 2.7400
  0.3500 	 1.4600 	 9.9999 	 9.0522 	 1.6211 	 59.5226 	 1.9340 	 54.4424 	 24.2138 	 5.0802 	 2.7400
  0.3500 	 1.4650 	 10.0033 	 9.0507 	 1.6172 	 59.4745 	 1.9322 	 54.5294 	 23.4714 	 4.9451 	 2.7400
  0.3500 	 1.4700 	 10.0067 	 9.0491 	 1.6132 	 59.4207 	 1.9304 	 54.6160 	 22.7102 	 4.8047 	 2.7400
  0.3500 	 1.4750 	 10.0101 	 9.0476 	 1.6094 	 59.3606 	 1.9287 	 54.7021 	 21.9284 	 4.6585 	 2.7400
  0.3500 	 1.4800 	 10.0134 	 9.0461 	 1.6055 	 59.2938 	 1.9270 	 54.7878 	 21.1236 	 4.5060 	 2.7400
  0.3500 	 1.4850 	 10.0167 	 9.0446 	 1.6016 	 59.2197 	 1.9253 	 54.8731 	 20.2930 	 4.3466 	 2.7400
  0.3500 	 1.4900 	 10.0200 	 9.0431 	 1.5978 	 59.1373 	 1.9236 	 54.9579 	 19.4332 	 4.1794 	 2.7400
  0.3500 	 1.4950 	 10.0233 	 9.0416 	 1.5940 	 59.0458 	 1.9220 	 55.0424 	 18.5400 	 4.0035 	 2.7400
  0.3500 	 1.5000 	 10.0266 	 9.0402 	 1.5902 	 58.9440 	 1.9203 	 55.1264 	 17.6084 	 3.8176 	 2.7400
  0.3500 	 1.5050 	 10.0298 	 9.0387 	 1.5865 	 58.8303 	 1.9187 	 55.2100 	 16.6319 	 3.6203 	 2.7400
  0.3500 	 1.5100 	 10.0330 	 9.0372 	 1.5827 	 58.7028 	 1.9170 	 55.2931 	 15.6018 	 3.4096 	 2.7400
  0.3500 	 1.5150 	 10.0362 	 9.0358 	 1.5790 	 58.5588 	 1.9154 	 55.3759 	 14.5067 	 3.1829 	 2.7400
  0.3500 	 1.5200 	 10.0394 	 9.0344 	 1.5753 	 58.3946 	 1.9138 	 55.4583 	 13.3305 	 2.9363 	 2.7400
  0.3500 	 1.5250 	 10.0425 	 9.0330 	 1.5717 	 58.2048 	 1.9123 	 55.5402 	 12.0495 	 2.6646 	 2.7400
  0.3500 	 1.5300 	 10.0457 	 9.0315 	 1.5680 	 57.9806 	 1.9107 	 55.6218 	 10.6256 	 2.3588 	 2.7400
  0.3500 	 1.5350 	 10.0488 	 9.0301 	 1.5644 	 57.7067 	 1.9091 	 55.7030 	 8.9911 	 2.0037 	 2.7400
  0.3500 	 1.5400 	 10.0519 	 9.0288 	 1.5608 	 57.3497 	 1.9076 	 55.7837 	 6.9999 	 1.5660 	 2.7400
  0.3500 	 1.3700 	 9.9303 	 9.1005 	 1.7010 	 59.6219 	 1.9734 	 52.7425 	 35.6015 	 6.8794 	 2.7500
  0.3500 	 1.3750 	 9.9342 	 9.0988 	 1.6966 	 59.6381 	 1.9713 	 52.8379 	 35.0276 	 6.8002 	 2.7500
  0.3500 	 1.3800 	 9.9381 	 9.0970 	 1.6922 	 59.6518 	 1.9692 	 52.9329 	 34.4486 	 6.7189 	 2.7500
  0.3500 	 1.3850 	 9.9419 	 9.0952 	 1.6878 	 59.6628 	 1.9671 	 53.0273 	 33.8642 	 6.6355 	 2.7500
  0.3500 	 1.3900 	 9.9457 	 9.0935 	 1.6834 	 59.6711 	 1.9651 	 53.1213 	 33.2741 	 6.5498 	 2.7500
  0.3500 	 1.3950 	 9.9495 	 9.0918 	 1.6791 	 59.6766 	 1.9631 	 53.2148 	 32.6779 	 6.4619 	 2.7500
  0.3500 	 1.4000 	 9.9532 	 9.0900 	 1.6748 	 59.6792 	 1.9610 	 53.3078 	 32.0753 	 6.3715 	 2.7500
  0.3500 	 1.4050 	 9.9570 	 9.0883 	 1.6705 	 59.6789 	 1.9591 	 53.4003 	 31.4657 	 6.2786 	 2.7500
  0.3500 	 1.4100 	 9.9607 	 9.0866 	 1.6663 	 59.6755 	 1.9571 	 53.4924 	 30.8488 	 6.1831 	 2.7500
  0.3500 	 1.4150 	 9.9643 	 9.0850 	 1.6621 	 59.6688 	 1.9551 	 53.5840 	 30.2240 	 6.0849 	 2.7500
  0.3500 	 1.4200 	 9.9680 	 9.0833 	 1.6579 	 59.6589 	 1.9532 	 53.6751 	 29.5908 	 5.9838 	 2.7500
  0.3500 	 1.4250 	 9.9716 	 9.0817 	 1.6537 	 59.6454 	 1.9513 	 53.7658 	 28.9486 	 5.8797 	 2.7500
  0.3500 	 1.4300 	 9.9752 	 9.0800 	 1.6496 	 59.6284 	 1.9494 	 53.8560 	 28.2967 	 5.7724 	 2.7500
  0.3500 	 1.4350 	 9.9788 	 9.0784 	 1.6455 	 59.6076 	 1.9475 	 53.9457 	 27.6344 	 5.6619 	 2.7500
  0.3500 	 1.4400 	 9.9823 	 9.0768 	 1.6414 	 59.5828 	 1.9457 	 54.0350 	 26.9608 	 5.5477 	 2.7500
  0.3500 	 1.4450 	 9.9858 	 9.0752 	 1.6374 	 59.5537 	 1.9438 	 54.1239 	 26.2751 	 5.4299 	 2.7500
  0.3500 	 1.4500 	 9.9893 	 9.0736 	 1.6333 	 59.5203 	 1.9420 	 54.2123 	 25.5763 	 5.3081 	 2.7500
  0.3500 	 1.4550 	 9.9928 	 9.0720 	 1.6293 	 59.4822 	 1.9402 	 54.3002 	 24.8630 	 5.1820 	 2.7500
  0.3500 	 1.4600 	 9.9963 	 9.0704 	 1.6253 	 59.4390 	 1.9384 	 54.3877 	 24.1341 	 5.0513 	 2.7500
  0.3500 	 1.4650 	 9.9997 	 9.0689 	 1.6214 	 59.3905 	 1.9367 	 54.4748 	 23.3880 	 4.9157 	 2.7500
  0.3500 	 1.4700 	 10.0031 	 9.0673 	 1.6174 	 59.3362 	 1.9349 	 54.5614 	 22.6230 	 4.7747 	 2.7500
  0.3500 	 1.4750 	 10.0065 	 9.0658 	 1.6135 	 59.2756 	 1.9332 	 54.6476 	 21.8369 	 4.6279 	 2.7500
  0.3500 	 1.4800 	 10.0098 	 9.0643 	 1.6097 	 59.2082 	 1.9314 	 54.7334 	 21.0274 	 4.4748 	 2.7500
  0.3500 	 1.4850 	 10.0132 	 9.0627 	 1.6058 	 59.1333 	 1.9297 	 54.8188 	 20.1915 	 4.3145 	 2.7500
  0.3500 	 1.4900 	 10.0165 	 9.0612 	 1.6020 	 59.0501 	 1.9280 	 54.9037 	 19.3259 	 4.1464 	 2.7500
  0.3500 	 1.4950 	 10.0198 	 9.0598 	 1.5981 	 58.9576 	 1.9264 	 54.9882 	 18.4262 	 3.9694 	 2.7500
  0.3500 	 1.5000 	 10.0230 	 9.0583 	 1.5943 	 58.8546 	 1.9247 	 55.0723 	 17.4872 	 3.7823 	 2.7500
  0.3500 	 1.5050 	 10.0263 	 9.0568 	 1.5906 	 58.7395 	 1.9231 	 55.1560 	 16.5019 	 3.5835 	 2.7500
  0.3500 	 1.5100 	 10.0295 	 9.0553 	 1.5868 	 58.6102 	 1.9214 	 55.2392 	 15.4616 	 3.3710 	 2.7500
  0.3500 	 1.5150 	 10.0327 	 9.0539 	 1.5831 	 58.4640 	 1.9198 	 55.3221 	 14.3542 	 3.1419 	 2.7500
  0.3500 	 1.5200 	 10.0359 	 9.0525 	 1.5794 	 58.2970 	 1.9182 	 55.4045 	 13.1626 	 2.8925 	 2.7500
  0.3500 	 1.5250 	 10.0390 	 9.0510 	 1.5757 	 58.1033 	 1.9166 	 55.4865 	 11.8614 	 2.6168 	 2.7500
  0.3500 	 1.5300 	 10.0422 	 9.0496 	 1.5721 	 57.8736 	 1.9150 	 55.5682 	 10.4095 	 2.3054 	 2.7500
  0.3500 	 1.5350 	 10.0453 	 9.0482 	 1.5684 	 57.5908 	 1.9135 	 55.6494 	 8.7320 	 1.9414 	 2.7500
  0.3500 	 1.5400 	 10.0484 	 9.0468 	 1.5648 	 57.2167 	 1.9119 	 55.7302 	 6.6602 	 1.4865 	 2.7500
  0.3500 	 1.3700 	 9.9264 	 9.1189 	 1.7055 	 59.5412 	 1.9780 	 52.6866 	 35.5612 	 6.8546 	 2.7600
  0.3500 	 1.3750 	 9.9303 	 9.1171 	 1.7010 	 59.5574 	 1.9759 	 52.7821 	 34.9858 	 6.7753 	 2.7600
  0.3500 	 1.3800 	 9.9342 	 9.1153 	 1.6966 	 59.5710 	 1.9738 	 52.8771 	 34.4053 	 6.6939 	 2.7600
  0.3500 	 1.3850 	 9.9381 	 9.1136 	 1.6922 	 59.5820 	 1.9717 	 52.9716 	 33.8193 	 6.6104 	 2.7600
  0.3500 	 1.3900 	 9.9419 	 9.1118 	 1.6878 	 59.5903 	 1.9697 	 53.0657 	 33.2276 	 6.5246 	 2.7600
  0.3500 	 1.3950 	 9.9457 	 9.1101 	 1.6835 	 59.5957 	 1.9676 	 53.1592 	 32.6297 	 6.4365 	 2.7600
  0.3500 	 1.4000 	 9.9494 	 9.1083 	 1.6792 	 59.5983 	 1.9656 	 53.2523 	 32.0252 	 6.3460 	 2.7600
  0.3500 	 1.4050 	 9.9532 	 9.1066 	 1.6749 	 59.5979 	 1.9636 	 53.3449 	 31.4138 	 6.2529 	 2.7600
  0.3500 	 1.4100 	 9.9569 	 9.1049 	 1.6706 	 59.5943 	 1.9617 	 53.4371 	 30.7949 	 6.1572 	 2.7600
  0.3500 	 1.4150 	 9.9606 	 9.1032 	 1.6664 	 59.5876 	 1.9597 	 53.5287 	 30.1681 	 6.0588 	 2.7600
  0.3500 	 1.4200 	 9.9642 	 9.1016 	 1.6622 	 59.5775 	 1.9578 	 53.6199 	 29.5328 	 5.9575 	 2.7600
  0.3500 	 1.4250 	 9.9679 	 9.0999 	 1.6580 	 59.5639 	 1.9558 	 53.7107 	 28.8884 	 5.8532 	 2.7600
  0.3500 	 1.4300 	 9.9715 	 9.0982 	 1.6539 	 59.5467 	 1.9539 	 53.8010 	 28.2342 	 5.7457 	 2.7600
  0.3500 	 1.4350 	 9.9751 	 9.0966 	 1.6498 	 59.5257 	 1.9521 	 53.8908 	 27.5694 	 5.6349 	 2.7600
  0.3500 	 1.4400 	 9.9786 	 9.0950 	 1.6457 	 59.5006 	 1.9502 	 53.9802 	 26.8933 	 5.5205 	 2.7600
  0.3500 	 1.4450 	 9.9822 	 9.0934 	 1.6416 	 59.4714 	 1.9483 	 54.0691 	 26.2048 	 5.4023 	 2.7600
  0.3500 	 1.4500 	 9.9857 	 9.0918 	 1.6376 	 59.4377 	 1.9465 	 54.1576 	 25.5030 	 5.2801 	 2.7600
  0.3500 	 1.4550 	 9.9891 	 9.0902 	 1.6335 	 59.3992 	 1.9447 	 54.2456 	 24.7866 	 5.1536 	 2.7600
  0.3500 	 1.4600 	 9.9926 	 9.0886 	 1.6295 	 59.3557 	 1.9429 	 54.3332 	 24.0543 	 5.0225 	 2.7600
  0.3500 	 1.4650 	 9.9960 	 9.0870 	 1.6256 	 59.3067 	 1.9411 	 54.4203 	 23.3046 	 4.8864 	 2.7600
  0.3500 	 1.4700 	 9.9995 	 9.0855 	 1.6216 	 59.2519 	 1.9393 	 54.5071 	 22.5355 	 4.7449 	 2.7600
  0.3500 	 1.4750 	 10.0029 	 9.0839 	 1.6177 	 59.1908 	 1.9376 	 54.5933 	 21.7451 	 4.5975 	 2.7600
  0.3500 	 1.4800 	 10.0062 	 9.0824 	 1.6138 	 59.1228 	 1.9359 	 54.6792 	 20.9309 	 4.4436 	 2.7600
  0.3500 	 1.4850 	 10.0096 	 9.0809 	 1.6099 	 59.0472 	 1.9342 	 54.7646 	 20.0898 	 4.2825 	 2.7600
  0.3500 	 1.4900 	 10.0129 	 9.0794 	 1.6061 	 58.9631 	 1.9325 	 54.8496 	 19.2183 	 4.1135 	 2.7600
  0.3500 	 1.4950 	 10.0162 	 9.0779 	 1.6023 	 58.8696 	 1.9308 	 54.9342 	 18.3120 	 3.9354 	 2.7600
  0.3500 	 1.5000 	 10.0195 	 9.0764 	 1.5985 	 58.7654 	 1.9291 	 55.0184 	 17.3653 	 3.7470 	 2.7600
  0.3500 	 1.5050 	 10.0227 	 9.0749 	 1.5947 	 58.6488 	 1.9274 	 55.1021 	 16.3713 	 3.5467 	 2.7600
  0.3500 	 1.5100 	 10.0260 	 9.0734 	 1.5909 	 58.5177 	 1.9258 	 55.1854 	 15.3205 	 3.3323 	 2.7600
  0.3500 	 1.5150 	 10.0292 	 9.0720 	 1.5872 	 58.3693 	 1.9242 	 55.2684 	 14.2003 	 3.1009 	 2.7600
  0.3500 	 1.5200 	 10.0324 	 9.0705 	 1.5835 	 58.1993 	 1.9226 	 55.3509 	 12.9928 	 2.8484 	 2.7600
  0.3500 	 1.5250 	 10.0355 	 9.0691 	 1.5798 	 58.0016 	 1.9210 	 55.4330 	 11.6707 	 2.5686 	 2.7600
  0.3500 	 1.5300 	 10.0387 	 9.0677 	 1.5761 	 57.7660 	 1.9194 	 55.5147 	 10.1893 	 2.2513 	 2.7600
  0.3500 	 1.5350 	 10.0418 	 9.0662 	 1.5725 	 57.4737 	 1.9178 	 55.5960 	 8.4655 	 1.8777 	 2.7600
  0.3500 	 1.5400 	 10.0449 	 9.0648 	 1.5689 	 57.0804 	 1.9163 	 55.6769 	 6.3030 	 1.4035 	 2.7600
  0.3500 	 1.3700 	 9.9225 	 9.1372 	 1.7099 	 59.4608 	 1.9827 	 52.6309 	 35.5208 	 6.8300 	 2.7700
  0.3500 	 1.3750 	 9.9265 	 9.1354 	 1.7055 	 59.4770 	 1.9805 	 52.7264 	 34.9440 	 6.7506 	 2.7700
  0.3500 	 1.3800 	 9.9303 	 9.1336 	 1.7010 	 59.4906 	 1.9784 	 52.8215 	 34.3619 	 6.6691 	 2.7700
  0.3500 	 1.3850 	 9.9342 	 9.1319 	 1.6966 	 59.5016 	 1.9763 	 52.9161 	 33.7744 	 6.5854 	 2.7700
  0.3500 	 1.3900 	 9.9380 	 9.1301 	 1.6922 	 59.5098 	 1.9743 	 53.0102 	 33.1810 	 6.4995 	 2.7700
  0.3500 	 1.3950 	 9.9419 	 9.1283 	 1.6879 	 59.5151 	 1.9722 	 53.1039 	 32.5814 	 6.4113 	 2.7700
  0.3500 	 1.4000 	 9.9456 	 9.1266 	 1.6835 	 59.5176 	 1.9702 	 53.1970 	 31.9752 	 6.3206 	 2.7700
  0.3500 	 1.4050 	 9.9494 	 9.1249 	 1.6792 	 59.5171 	 1.9682 	 53.2897 	 31.3619 	 6.2274 	 2.7700
  0.3500 	 1.4100 	 9.9531 	 9.1232 	 1.6750 	 59.5135 	 1.9662 	 53.3819 	 30.7411 	 6.1315 	 2.7700
  0.3500 	 1.4150 	 9.9568 	 9.1215 	 1.6707 	 59.5066 	 1.9642 	 53.4737 	 30.1123 	 6.0329 	 2.7700
  0.3500 	 1.4200 	 9.9605 	 9.1198 	 1.6665 	 59.4964 	 1.9623 	 53.5650 	 29.4749 	 5.9314 	 2.7700
  0.3500 	 1.4250 	 9.9641 	 9.1181 	 1.6623 	 59.4827 	 1.9604 	 53.6558 	 28.8282 	 5.8269 	 2.7700
  0.3500 	 1.4300 	 9.9677 	 9.1165 	 1.6582 	 59.4653 	 1.9585 	 53.7461 	 28.1717 	 5.7191 	 2.7700
  0.3500 	 1.4350 	 9.9713 	 9.1148 	 1.6540 	 59.4440 	 1.9566 	 53.8360 	 27.5044 	 5.6080 	 2.7700
  0.3500 	 1.4400 	 9.9749 	 9.1132 	 1.6499 	 59.4188 	 1.9547 	 53.9255 	 26.8257 	 5.4933 	 2.7700
  0.3500 	 1.4450 	 9.9785 	 9.1115 	 1.6458 	 59.3893 	 1.9528 	 54.0145 	 26.1344 	 5.3748 	 2.7700
  0.3500 	 1.4500 	 9.9820 	 9.1099 	 1.6418 	 59.3553 	 1.9510 	 54.1030 	 25.4297 	 5.2523 	 2.7700
  0.3500 	 1.4550 	 9.9855 	 9.1083 	 1.6378 	 59.3165 	 1.9492 	 54.1911 	 24.7101 	 5.1254 	 2.7700
  0.3500 	 1.4600 	 9.9890 	 9.1067 	 1.6338 	 59.2726 	 1.9474 	 54.2788 	 23.9744 	 4.9938 	 2.7700
  0.3500 	 1.4650 	 9.9924 	 9.1052 	 1.6298 	 59.2232 	 1.9456 	 54.3660 	 23.2210 	 4.8572 	 2.7700
  0.3500 	 1.4700 	 9.9958 	 9.1036 	 1.6258 	 59.1680 	 1.9438 	 54.4528 	 22.4480 	 4.7151 	 2.7700
  0.3500 	 1.4750 	 9.9992 	 9.1021 	 1.6219 	 59.1063 	 1.9420 	 54.5392 	 21.6532 	 4.5671 	 2.7700
  0.3500 	 1.4800 	 10.0026 	 9.1005 	 1.6180 	 59.0376 	 1.9403 	 54.6251 	 20.8341 	 4.4125 	 2.7700
  0.3500 	 1.4850 	 10.0060 	 9.0990 	 1.6141 	 58.9612 	 1.9386 	 54.7106 	 19.9877 	 4.2507 	 2.7700
  0.3500 	 1.4900 	 10.0093 	 9.0975 	 1.6102 	 58.8763 	 1.9369 	 54.7957 	 19.1103 	 4.0807 	 2.7700
  0.3500 	 1.4950 	 10.0126 	 9.0960 	 1.6064 	 58.7818 	 1.9352 	 54.8803 	 18.1972 	 3.9015 	 2.7700
  0.3500 	 1.5000 	 10.0159 	 9.0945 	 1.6026 	 58.6764 	 1.9335 	 54.9646 	 17.2429 	 3.7118 	 2.7700
  0.3500 	 1.5050 	 10.0192 	 9.0930 	 1.5988 	 58.5583 	 1.9318 	 55.0484 	 16.2398 	 3.5099 	 2.7700
  0.3500 	 1.5100 	 10.0224 	 9.0915 	 1.5950 	 58.4254 	 1.9302 	 55.1318 	 15.1783 	 3.2936 	 2.7700
  0.3500 	 1.5150 	 10.0257 	 9.0900 	 1.5913 	 58.2746 	 1.9286 	 55.2148 	 14.0451 	 3.0598 	 2.7700
  0.3500 	 1.5200 	 10.0289 	 9.0886 	 1.5876 	 58.1016 	 1.9269 	 55.2974 	 12.8211 	 2.8042 	 2.7700
  0.3500 	 1.5250 	 10.0321 	 9.0871 	 1.5839 	 57.8997 	 1.9253 	 55.3796 	 11.4772 	 2.5201 	 2.7700
  0.3500 	 1.5300 	 10.0352 	 9.0857 	 1.5802 	 57.6579 	 1.9237 	 55.4614 	 9.9647 	 2.1965 	 2.7700
  0.3500 	 1.5350 	 10.0384 	 9.0843 	 1.5765 	 57.3553 	 1.9222 	 55.5427 	 8.1909 	 1.8125 	 2.7700
  0.3500 	 1.5400 	 10.0415 	 9.0828 	 1.5729 	 56.9400 	 1.9206 	 55.6237 	 5.9252 	 1.3162 	 2.7700
  0.3500 	 1.3700 	 9.9187 	 9.1556 	 1.7144 	 59.3807 	 1.9873 	 52.5753 	 35.4805 	 6.8055 	 2.7800
  0.3500 	 1.3750 	 9.9226 	 9.1537 	 1.7099 	 59.3969 	 1.9852 	 52.6709 	 34.9022 	 6.7260 	 2.7800
  0.3500 	 1.3800 	 9.9265 	 9.1519 	 1.7054 	 59.4105 	 1.9830 	 52.7661 	 34.3186 	 6.6444 	 2.7800
  0.3500 	 1.3850 	 9.9304 	 9.1501 	 1.7010 	 59.4214 	 1.9809 	 52.8608 	 33.7295 	 6.5606 	 2.7800
  0.3500 	 1.3900 	 9.9342 	 9.1484 	 1.6966 	 59.4295 	 1.9789 	 52.9550 	 33.1345 	 6.4746 	 2.7800
  0.3500 	 1.3950 	 9.9380 	 9.1466 	 1.6922 	 59.4348 	 1.9768 	 53.0487 	 32.5331 	 6.3862 	 2.7800
  0.3500 	 1.4000 	 9.9418 	 9.1449 	 1.6879 	 59.4372 	 1.9748 	 53.1419 	 31.9252 	 6.2954 	 2.7800
  0.3500 	 1.4050 	 9.9456 	 9.1431 	 1.6836 	 59.4366 	 1.9728 	 53.2347 	 31.3100 	 6.2020 	 2.7800
  0.3500 	 1.4100 	 9.9493 	 9.1414 	 1.6793 	 59.4329 	 1.9708 	 53.3269 	 30.6873 	 6.1060 	 2.7800
  0.3500 	 1.4150 	 9.9530 	 9.1397 	 1.6750 	 59.4259 	 1.9688 	 53.4188 	 30.0565 	 6.0072 	 2.7800
  0.3500 	 1.4200 	 9.9567 	 9.1380 	 1.6708 	 59.4156 	 1.9668 	 53.5101 	 29.4169 	 5.9055 	 2.7800
  0.3500 	 1.4250 	 9.9604 	 9.1363 	 1.6666 	 59.4017 	 1.9649 	 53.6010 	 28.7681 	 5.8007 	 2.7800
  0.3500 	 1.4300 	 9.9640 	 9.1346 	 1.6624 	 59.3841 	 1.9630 	 53.6914 	 28.1091 	 5.6927 	 2.7800
  0.3500 	 1.4350 	 9.9676 	 9.1330 	 1.6583 	 59.3627 	 1.9611 	 53.7814 	 27.4394 	 5.5813 	 2.7800
  0.3500 	 1.4400 	 9.9712 	 9.1313 	 1.6542 	 59.3372 	 1.9592 	 53.8709 	 26.7580 	 5.4663 	 2.7800
  0.3500 	 1.4450 	 9.9748 	 9.1297 	 1.6501 	 59.3075 	 1.9573 	 53.9600 	 26.0640 	 5.3475 	 2.7800
  0.3500 	 1.4500 	 9.9783 	 9.1281 	 1.6460 	 59.2732 	 1.9555 	 54.0486 	 25.3563 	 5.2246 	 2.7800
  0.3500 	 1.4550 	 9.9818 	 9.1265 	 1.6420 	 59.2341 	 1.9536 	 54.1368 	 24.6335 	 5.0973 	 2.7800
  0.3500 	 1.4600 	 9.9853 	 9.1249 	 1.6380 	 59.1898 	 1.9518 	 54.2245 	 23.8944 	 4.9653 	 2.7800
  0.3500 	 1.4650 	 9.9888 	 9.1233 	 1.6340 	 59.1400 	 1.9500 	 54.3118 	 23.1373 	 4.8282 	 2.7800
  0.3500 	 1.4700 	 9.9922 	 9.1217 	 1.6300 	 59.0842 	 1.9482 	 54.3987 	 22.3602 	 4.6855 	 2.7800
  0.3500 	 1.4750 	 9.9956 	 9.1202 	 1.6261 	 59.0220 	 1.9465 	 54.4851 	 21.5610 	 4.5369 	 2.7800
  0.3500 	 1.4800 	 9.9990 	 9.1186 	 1.6221 	 58.9527 	 1.9447 	 54.5711 	 20.7371 	 4.3816 	 2.7800
  0.3500 	 1.4850 	 10.0024 	 9.1171 	 1.6182 	 58.8756 	 1.9430 	 54.6567 	 19.8854 	 4.2189 	 2.7800
  0.3500 	 1.4900 	 10.0057 	 9.1155 	 1.6144 	 58.7898 	 1.9413 	 54.7419 	 19.0019 	 4.0479 	 2.7800
  0.3500 	 1.4950 	 10.0091 	 9.1140 	 1.6105 	 58.6942 	 1.9396 	 54.8266 	 18.0820 	 3.8676 	 2.7800
  0.3500 	 1.5000 	 10.0124 	 9.1125 	 1.6067 	 58.5875 	 1.9379 	 54.9109 	 17.1198 	 3.6766 	 2.7800
  0.3500 	 1.5050 	 10.0156 	 9.1110 	 1.6029 	 58.4679 	 1.9362 	 54.9948 	 16.1076 	 3.4731 	 2.7800
  0.3500 	 1.5100 	 10.0189 	 9.1095 	 1.5991 	 58.3331 	 1.9346 	 55.0783 	 15.0352 	 3.2549 	 2.7800
  0.3500 	 1.5150 	 10.0221 	 9.1081 	 1.5954 	 58.1799 	 1.9329 	 55.1614 	 13.8886 	 3.0186 	 2.7800
  0.3500 	 1.5200 	 10.0254 	 9.1066 	 1.5916 	 58.0037 	 1.9313 	 55.2440 	 12.6475 	 2.7597 	 2.7800
  0.3500 	 1.5250 	 10.0286 	 9.1051 	 1.5879 	 57.7974 	 1.9297 	 55.3263 	 11.2808 	 2.4712 	 2.7800
  0.3500 	 1.5300 	 10.0317 	 9.1037 	 1.5842 	 57.5491 	 1.9281 	 55.4081 	 9.7355 	 2.1410 	 2.7800
  0.3500 	 1.5350 	 10.0349 	 9.1023 	 1.5806 	 57.2353 	 1.9265 	 55.4896 	 7.9074 	 1.7457 	 2.7800
  0.3500 	 1.5400 	 10.0380 	 9.1008 	 1.5769 	 56.7946 	 1.9249 	 55.5707 	 5.5224 	 1.2239 	 2.7800
  0.3500 	 1.3700 	 9.9148 	 9.1738 	 1.7188 	 59.3009 	 1.9919 	 52.5198 	 35.4402 	 6.7811 	 2.7900
  0.3500 	 1.3750 	 9.9187 	 9.1720 	 1.7143 	 59.3171 	 1.9898 	 52.6156 	 34.8604 	 6.7015 	 2.7900
  0.3500 	 1.3800 	 9.9226 	 9.1702 	 1.7098 	 59.3306 	 1.9876 	 52.7108 	 34.2753 	 6.6198 	 2.7900
  0.3500 	 1.3850 	 9.9265 	 9.1684 	 1.7054 	 59.3415 	 1.9855 	 52.8055 	 33.6846 	 6.5359 	 2.7900
  0.3500 	 1.3900 	 9.9304 	 9.1666 	 1.7010 	 59.3496 	 1.9835 	 52.8998 	 33.0879 	 6.4497 	 2.7900
  0.3500 	 1.3950 	 9.9342 	 9.1648 	 1.6966 	 59.3548 	 1.9814 	 52.9936 	 32.4849 	 6.3612 	 2.7900
  0.3500 	 1.4000 	 9.9380 	 9.1631 	 1.6922 	 59.3572 	 1.9793 	 53.0869 	 31.8751 	 6.2703 	 2.7900
  0.3500 	 1.4050 	 9.9418 	 9.1613 	 1.6879 	 59.3565 	 1.9773 	 53.1797 	 31.2582 	 6.1767 	 2.7900
  0.3500 	 1.4100 	 9.9455 	 9.1596 	 1.6836 	 59.3526 	 1.9753 	 53.2721 	 30.6335 	 6.0805 	 2.7900
  0.3500 	 1.4150 	 9.9493 	 9.1579 	 1.6794 	 59.3455 	 1.9733 	 53.3640 	 30.0006 	 5.9815 	 2.7900
  0.3500 	 1.4200 	 9.9530 	 9.1562 	 1.6751 	 59.3350 	 1.9714 	 53.4554 	 29.3590 	 5.8796 	 2.7900
  0.3500 	 1.4250 	 9.9566 	 9.1545 	 1.6709 	 59.3210 	 1.9694 	 53.5464 	 28.7079 	 5.7746 	 2.7900
  0.3500 	 1.4300 	 9.9603 	 9.1528 	 1.6667 	 59.3033 	 1.9675 	 53.6369 	 28.0466 	 5.6664 	 2.7900
  0.3500 	 1.4350 	 9.9639 	 9.1511 	 1.6626 	 59.2816 	 1.9656 	 53.7269 	 27.3744 	 5.5547 	 2.7900
  0.3500 	 1.4400 	 9.9675 	 9.1495 	 1.6584 	 59.2559 	 1.9637 	 53.8165 	 26.6904 	 5.4394 	 2.7900
  0.3500 	 1.4450 	 9.9711 	 9.1478 	 1.6543 	 59.2259 	 1.9618 	 53.9057 	 25.9935 	 5.3203 	 2.7900
  0.3500 	 1.4500 	 9.9746 	 9.1462 	 1.6503 	 59.1913 	 1.9599 	 53.9943 	 25.2828 	 5.1970 	 2.7900
  0.3500 	 1.4550 	 9.9782 	 9.1446 	 1.6462 	 59.1519 	 1.9581 	 54.0826 	 24.5568 	 5.0693 	 2.7900
  0.3500 	 1.4600 	 9.9817 	 9.1430 	 1.6422 	 59.1072 	 1.9563 	 54.1704 	 23.8143 	 4.9368 	 2.7900
  0.3500 	 1.4650 	 9.9851 	 9.1414 	 1.6382 	 59.0570 	 1.9545 	 54.2578 	 23.0534 	 4.7992 	 2.7900
  0.3500 	 1.4700 	 9.9886 	 9.1398 	 1.6342 	 59.0008 	 1.9527 	 54.3447 	 22.2723 	 4.6560 	 2.7900
  0.3500 	 1.4750 	 9.9920 	 9.1382 	 1.6302 	 58.9380 	 1.9509 	 54.4312 	 21.4687 	 4.5067 	 2.7900
  0.3500 	 1.4800 	 9.9954 	 9.1367 	 1.6263 	 58.8680 	 1.9491 	 54.5173 	 20.6399 	 4.3507 	 2.7900
  0.3500 	 1.4850 	 9.9988 	 9.1351 	 1.6224 	 58.7901 	 1.9474 	 54.6030 	 19.7827 	 4.1872 	 2.7900
  0.3500 	 1.4900 	 10.0022 	 9.1336 	 1.6185 	 58.7034 	 1.9457 	 54.6882 	 18.8931 	 4.0152 	 2.7900
  0.3500 	 1.4950 	 10.0055 	 9.1321 	 1.6147 	 58.6068 	 1.9440 	 54.7730 	 17.9663 	 3.8338 	 2.7900
  0.3500 	 1.5000 	 10.0088 	 9.1305 	 1.6108 	 58.4988 	 1.9423 	 54.8574 	 16.9961 	 3.6415 	 2.7900
  0.3500 	 1.5050 	 10.0121 	 9.1290 	 1.6070 	 58.3777 	 1.9406 	 54.9414 	 15.9745 	 3.4363 	 2.7900
  0.3500 	 1.5100 	 10.0154 	 9.1275 	 1.6032 	 58.2410 	 1.9389 	 55.0249 	 14.8909 	 3.2161 	 2.7900
  0.3500 	 1.5150 	 10.0186 	 9.1261 	 1.5994 	 58.0853 	 1.9373 	 55.1081 	 13.7305 	 2.9772 	 2.7900
  0.3500 	 1.5200 	 10.0219 	 9.1246 	 1.5957 	 57.9058 	 1.9357 	 55.1908 	 12.4718 	 2.7150 	 2.7900
  0.3500 	 1.5250 	 10.0251 	 9.1231 	 1.5920 	 57.6949 	 1.9340 	 55.2731 	 11.0813 	 2.4218 	 2.7900
  0.3500 	 1.5300 	 10.0283 	 9.1217 	 1.5883 	 57.4396 	 1.9324 	 55.3551 	 9.5012 	 2.0846 	 2.7900
  0.3500 	 1.5350 	 10.0314 	 9.1202 	 1.5846 	 57.1136 	 1.9308 	 55.4366 	 7.6140 	 1.6770 	 2.7900
  0.3500 	 1.5400 	 10.0346 	 9.1188 	 1.5810 	 56.6429 	 1.9293 	 55.5177 	 5.0889 	 1.1252 	 2.7900
  0.3600 	 1.3800 	 9.9574 	 9.0050 	 1.6660 	 60.4180 	 1.9460 	 53.2138 	 35.4758 	 7.2042 	 2.7000
  0.3600 	 1.3850 	 9.9611 	 9.0033 	 1.6617 	 60.4330 	 1.9440 	 53.3078 	 34.9271 	 7.1252 	 2.7000
  0.3600 	 1.3900 	 9.9649 	 9.0016 	 1.6574 	 60.4455 	 1.9420 	 53.4014 	 34.3740 	 7.0441 	 2.7000
  0.3600 	 1.3950 	 9.9686 	 8.9999 	 1.6531 	 60.4555 	 1.9401 	 53.4945 	 33.8160 	 6.9610 	 2.7000
  0.3600 	 1.4000 	 9.9723 	 8.9982 	 1.6489 	 60.4629 	 1.9381 	 53.5872 	 33.2530 	 6.8758 	 2.7000
  0.3600 	 1.4050 	 9.9759 	 8.9966 	 1.6447 	 60.4676 	 1.9362 	 53.6793 	 32.6846 	 6.7883 	 2.7000
  0.3600 	 1.4100 	 9.9796 	 8.9949 	 1.6405 	 60.4696 	 1.9342 	 53.7710 	 32.1104 	 6.6986 	 2.7000
  0.3600 	 1.4150 	 9.9832 	 8.9933 	 1.6364 	 60.4687 	 1.9323 	 53.8622 	 31.5302 	 6.6065 	 2.7000
  0.3600 	 1.4200 	 9.9867 	 8.9917 	 1.6322 	 60.4648 	 1.9305 	 53.9530 	 30.9435 	 6.5119 	 2.7000
  0.3600 	 1.4250 	 9.9903 	 8.9901 	 1.6281 	 60.4580 	 1.9286 	 54.0433 	 30.3499 	 6.4147 	 2.7000
  0.3600 	 1.4300 	 9.9938 	 8.9885 	 1.6240 	 60.4479 	 1.9268 	 54.1331 	 29.7490 	 6.3149 	 2.7000
  0.3600 	 1.4350 	 9.9973 	 8.9869 	 1.6200 	 60.4346 	 1.9249 	 54.2225 	 29.1402 	 6.2122 	 2.7000
  0.3600 	 1.4400 	 10.0008 	 8.9854 	 1.6160 	 60.4179 	 1.9231 	 54.3114 	 28.5230 	 6.1066 	 2.7000
  0.3600 	 1.4450 	 10.0043 	 8.9838 	 1.6120 	 60.3977 	 1.9213 	 54.3998 	 27.8968 	 5.9978 	 2.7000
  0.3600 	 1.4500 	 10.0077 	 8.9823 	 1.6080 	 60.3737 	 1.9195 	 54.4879 	 27.2609 	 5.8858 	 2.7000
  0.3600 	 1.4550 	 10.0111 	 8.9807 	 1.6041 	 60.3458 	 1.9178 	 54.5754 	 26.6146 	 5.7704 	 2.7000
  0.3600 	 1.4600 	 10.0145 	 8.9792 	 1.6001 	 60.3139 	 1.9160 	 54.6626 	 25.9570 	 5.6513 	 2.7000
  0.3600 	 1.4650 	 10.0179 	 8.9777 	 1.5962 	 60.2776 	 1.9143 	 54.7493 	 25.2873 	 5.5283 	 2.7000
  0.3600 	 1.4700 	 10.0212 	 8.9762 	 1.5924 	 60.2367 	 1.9126 	 54.8355 	 24.6043 	 5.4012 	 2.7000
  0.3600 	 1.4750 	 10.0245 	 8.9747 	 1.5885 	 60.1909 	 1.9109 	 54.9213 	 23.9069 	 5.2696 	 2.7000
  0.3600 	 1.4800 	 10.0278 	 8.9732 	 1.5847 	 60.1399 	 1.9092 	 55.0067 	 23.1937 	 5.1332 	 2.7000
  0.3600 	 1.4850 	 10.0311 	 8.9718 	 1.5809 	 60.0834 	 1.9076 	 55.0917 	 22.4632 	 4.9917 	 2.7000
  0.3600 	 1.4900 	 10.0344 	 8.9703 	 1.5771 	 60.0208 	 1.9059 	 55.1762 	 21.7136 	 4.8445 	 2.7000
  0.3600 	 1.4950 	 10.0376 	 8.9689 	 1.5733 	 59.9516 	 1.9043 	 55.2604 	 20.9428 	 4.6913 	 2.7000
  0.3600 	 1.5000 	 10.0408 	 8.9674 	 1.5696 	 59.8753 	 1.9027 	 55.3441 	 20.1482 	 4.5312 	 2.7000
  0.3600 	 1.5050 	 10.0440 	 8.9660 	 1.5659 	 59.7911 	 1.9010 	 55.4274 	 19.3269 	 4.3637 	 2.7000
  0.3600 	 1.5100 	 10.0471 	 8.9646 	 1.5622 	 59.6981 	 1.8995 	 55.5102 	 18.4752 	 4.1879 	 2.7000
  0.3600 	 1.5150 	 10.0503 	 8.9632 	 1.5585 	 59.5953 	 1.8979 	 55.5927 	 17.5888 	 4.0026 	 2.7000
  0.3600 	 1.5200 	 10.0534 	 8.9618 	 1.5549 	 59.4811 	 1.8963 	 55.6747 	 16.6619 	 3.8064 	 2.7000
  0.3600 	 1.5250 	 10.0565 	 8.9604 	 1.5512 	 59.3540 	 1.8948 	 55.7564 	 15.6873 	 3.5976 	 2.7000
  0.3600 	 1.5300 	 10.0596 	 8.9590 	 1.5476 	 59.2116 	 1.8932 	 55.8376 	 14.6555 	 3.3739 	 2.7000
  0.3600 	 1.5350 	 10.0627 	 8.9577 	 1.5441 	 59.0506 	 1.8917 	 55.9185 	 13.5532 	 3.1321 	 2.7000
  0.3600 	 1.5400 	 10.0657 	 8.9563 	 1.5405 	 58.8666 	 1.8902 	 55.9990 	 12.3617 	 2.8677 	 2.7000
  0.3600 	 1.5450 	 10.0687 	 8.9549 	 1.5369 	 58.6525 	 1.8887 	 56.0790 	 11.0519 	 2.5735 	 2.7000
  0.3600 	 1.5500 	 10.0717 	 8.9536 	 1.5334 	 58.3968 	 1.8872 	 56.1587 	 9.5754 	 2.2381 	 2.7000
  0.3600 	 1.5550 	 10.0747 	 8.9523 	 1.5299 	 58.0769 	 1.8858 	 56.2380 	 7.8383 	 1.8390 	 2.7000
  0.3600 	 1.5600 	 10.0777 	 8.9510 	 1.5264 	 57.6363 	 1.8843 	 56.3168 	 5.6031 	 1.3195 	 2.7000
  0.3600 	 1.3750 	 9.9497 	 9.0252 	 1.6748 	 60.3178 	 1.9527 	 53.0626 	 35.9817 	 7.2552 	 2.7100
  0.3600 	 1.3800 	 9.9535 	 9.0234 	 1.6704 	 60.3352 	 1.9507 	 53.1573 	 35.4359 	 7.1780 	 2.7100
  0.3600 	 1.3850 	 9.9573 	 9.0217 	 1.6661 	 60.3502 	 1.9486 	 53.2514 	 34.8859 	 7.0988 	 2.7100
  0.3600 	 1.3900 	 9.9610 	 9.0200 	 1.6618 	 60.3627 	 1.9466 	 53.3451 	 34.3312 	 7.0176 	 2.7100
  0.3600 	 1.3950 	 9.9648 	 9.0183 	 1.6575 	 60.3727 	 1.9447 	 53.4383 	 33.7718 	 6.9344 	 2.7100
  0.3600 	 1.4000 	 9.9685 	 9.0166 	 1.6533 	 60.3800 	 1.9427 	 53.5310 	 33.2071 	 6.8491 	 2.7100
  0.3600 	 1.4050 	 9.9721 	 9.0150 	 1.6491 	 60.3847 	 1.9407 	 53.6232 	 32.6371 	 6.7615 	 2.7100
  0.3600 	 1.4100 	 9.9758 	 9.0133 	 1.6449 	 60.3866 	 1.9388 	 53.7150 	 32.0612 	 6.6716 	 2.7100
  0.3600 	 1.4150 	 9.9794 	 9.0117 	 1.6407 	 60.3856 	 1.9369 	 53.8063 	 31.4793 	 6.5793 	 2.7100
  0.3600 	 1.4200 	 9.9830 	 9.0101 	 1.6366 	 60.3817 	 1.9350 	 53.8971 	 30.8907 	 6.4846 	 2.7100
  0.3600 	 1.4250 	 9.9866 	 9.0085 	 1.6324 	 60.3747 	 1.9331 	 53.9875 	 30.2952 	 6.3872 	 2.7100
  0.3600 	 1.4300 	 9.9901 	 9.0069 	 1.6284 	 60.3645 	 1.9313 	 54.0774 	 29.6923 	 6.2871 	 2.7100
  0.3600 	 1.4350 	 9.9936 	 9.0053 	 1.6243 	 60.3511 	 1.9295 	 54.1668 	 29.0814 	 6.1843 	 2.7100
  0.3600 	 1.4400 	 9.9971 	 9.0037 	 1.6203 	 60.3342 	 1.9276 	 54.2558 	 28.4620 	 6.0784 	 2.7100
  0.3600 	 1.4450 	 10.0006 	 9.0021 	 1.6162 	 60.3138 	 1.9258 	 54.3443 	 27.8335 	 5.9694 	 2.7100
  0.3600 	 1.4500 	 10.0040 	 9.0006 	 1.6123 	 60.2896 	 1.9240 	 54.4324 	 27.1951 	 5.8571 	 2.7100
  0.3600 	 1.4550 	 10.0075 	 8.9990 	 1.6083 	 60.2615 	 1.9223 	 54.5201 	 26.5463 	 5.7414 	 2.7100
  0.3600 	 1.4600 	 10.0109 	 8.9975 	 1.6044 	 60.2292 	 1.9205 	 54.6073 	 25.8860 	 5.6219 	 2.7100
  0.3600 	 1.4650 	 10.0142 	 8.9960 	 1.6004 	 60.1926 	 1.9188 	 54.6941 	 25.2133 	 5.4986 	 2.7100
  0.3600 	 1.4700 	 10.0176 	 8.9945 	 1.5966 	 60.1514 	 1.9171 	 54.7804 	 24.5272 	 5.3710 	 2.7100
  0.3600 	 1.4750 	 10.0209 	 8.9930 	 1.5927 	 60.1053 	 1.9154 	 54.8663 	 23.8265 	 5.2390 	 2.7100
  0.3600 	 1.4800 	 10.0242 	 8.9915 	 1.5889 	 60.0539 	 1.9137 	 54.9518 	 23.1098 	 5.1021 	 2.7100
  0.3600 	 1.4850 	 10.0275 	 8.9900 	 1.5850 	 59.9968 	 1.9120 	 55.0368 	 22.3754 	 4.9600 	 2.7100
  0.3600 	 1.4900 	 10.0308 	 8.9885 	 1.5812 	 59.9337 	 1.9103 	 55.1214 	 21.6216 	 4.8122 	 2.7100
  0.3600 	 1.4950 	 10.0340 	 8.9871 	 1.5775 	 59.8639 	 1.9087 	 55.2056 	 20.8462 	 4.6582 	 2.7100
  0.3600 	 1.5000 	 10.0372 	 8.9856 	 1.5737 	 59.7868 	 1.9071 	 55.2894 	 20.0466 	 4.4974 	 2.7100
  0.3600 	 1.5050 	 10.0404 	 8.9842 	 1.5700 	 59.7018 	 1.9055 	 55.3728 	 19.2197 	 4.3290 	 2.7100
  0.3600 	 1.5100 	 10.0436 	 8.9828 	 1.5663 	 59.6078 	 1.9039 	 55.4557 	 18.3617 	 4.1520 	 2.7100
  0.3600 	 1.5150 	 10.0468 	 8.9814 	 1.5626 	 59.5038 	 1.9023 	 55.5383 	 17.4681 	 3.9655 	 2.7100
  0.3600 	 1.5200 	 10.0499 	 8.9800 	 1.5590 	 59.3882 	 1.9007 	 55.6204 	 16.5330 	 3.7678 	 2.7100
  0.3600 	 1.5250 	 10.0530 	 8.9786 	 1.5553 	 59.2594 	 1.8991 	 55.7022 	 15.5488 	 3.5573 	 2.7100
  0.3600 	 1.5300 	 10.0561 	 8.9772 	 1.5517 	 59.1148 	 1.8976 	 55.7835 	 14.5055 	 3.3314 	 2.7100
  0.3600 	 1.5350 	 10.0592 	 8.9758 	 1.5481 	 58.9512 	 1.8961 	 55.8644 	 13.3892 	 3.0868 	 2.7100
  0.3600 	 1.5400 	 10.0622 	 8.9744 	 1.5445 	 58.7636 	 1.8946 	 55.9449 	 12.1797 	 2.8186 	 2.7100
  0.3600 	 1.5450 	 10.0653 	 8.9731 	 1.5410 	 58.5445 	 1.8931 	 56.0251 	 10.8458 	 2.5195 	 2.7100
  0.3600 	 1.5500 	 10.0683 	 8.9717 	 1.5375 	 58.2813 	 1.8916 	 56.1048 	 9.3343 	 2.1765 	 2.7100
  0.3600 	 1.5550 	 10.0713 	 8.9704 	 1.5339 	 57.9486 	 1.8901 	 56.1842 	 7.5388 	 1.7644 	 2.7100
  0.3600 	 1.5600 	 10.0743 	 8.9691 	 1.5305 	 57.4780 	 1.8886 	 56.2631 	 5.1714 	 1.2149 	 2.7100
  0.3600 	 1.3750 	 9.9458 	 9.0436 	 1.6793 	 60.2354 	 1.9574 	 53.0062 	 35.9432 	 7.2292 	 2.7200
  0.3600 	 1.3800 	 9.9497 	 9.0419 	 1.6749 	 60.2528 	 1.9553 	 53.1009 	 35.3961 	 7.1519 	 2.7200
  0.3600 	 1.3850 	 9.9534 	 9.0401 	 1.6705 	 60.2678 	 1.9533 	 53.1952 	 34.8446 	 7.0726 	 2.7200
  0.3600 	 1.3900 	 9.9572 	 9.0384 	 1.6662 	 60.2802 	 1.9513 	 53.2889 	 34.2885 	 6.9913 	 2.7200
  0.3600 	 1.3950 	 9.9610 	 9.0367 	 1.6619 	 60.2902 	 1.9493 	 53.3822 	 33.7275 	 6.9080 	 2.7200
  0.3600 	 1.4000 	 9.9647 	 9.0350 	 1.6577 	 60.2975 	 1.9473 	 53.4750 	 33.1613 	 6.8225 	 2.7200
  0.3600 	 1.4050 	 9.9683 	 9.0334 	 1.6534 	 60.3020 	 1.9453 	 53.5673 	 32.5896 	 6.7348 	 2.7200
  0.3600 	 1.4100 	 9.9720 	 9.0317 	 1.6492 	 60.3038 	 1.9434 	 53.6591 	 32.0121 	 6.6447 	 2.7200
  0.3600 	 1.4150 	 9.9756 	 9.0300 	 1.6450 	 60.3028 	 1.9415 	 53.7505 	 31.4283 	 6.5523 	 2.7200
  0.3600 	 1.4200 	 9.9792 	 9.0284 	 1.6409 	 60.2988 	 1.9396 	 53.8414 	 30.8379 	 6.4574 	 2.7200
  0.3600 	 1.4250 	 9.9828 	 9.0268 	 1.6368 	 60.2917 	 1.9377 	 53.9318 	 30.2405 	 6.3598 	 2.7200
  0.3600 	 1.4300 	 9.9864 	 9.0252 	 1.6327 	 60.2814 	 1.9358 	 54.0218 	 29.6356 	 6.2596 	 2.7200
  0.3600 	 1.4350 	 9.9899 	 9.0236 	 1.6286 	 60.2678 	 1.9340 	 54.1113 	 29.0226 	 6.1565 	 2.7200
  0.3600 	 1.4400 	 9.9934 	 9.0220 	 1.6245 	 60.2508 	 1.9321 	 54.2004 	 28.4010 	 6.0504 	 2.7200
  0.3600 	 1.4450 	 9.9969 	 9.0204 	 1.6205 	 60.2301 	 1.9303 	 54.2890 	 27.7701 	 5.9411 	 2.7200
  0.3600 	 1.4500 	 10.0004 	 9.0189 	 1.6165 	 60.2058 	 1.9285 	 54.3772 	 27.1293 	 5.8286 	 2.7200
  0.3600 	 1.4550 	 10.0038 	 9.0173 	 1.6125 	 60.1774 	 1.9268 	 54.4649 	 26.4779 	 5.7125 	 2.7200
  0.3600 	 1.4600 	 10.0072 	 9.0158 	 1.6086 	 60.1449 	 1.9250 	 54.5522 	 25.8148 	 5.5927 	 2.7200
  0.3600 	 1.4650 	 10.0106 	 9.0142 	 1.6047 	 60.1080 	 1.9233 	 54.6390 	 25.1393 	 5.4690 	 2.7200
  0.3600 	 1.4700 	 10.0140 	 9.0127 	 1.6008 	 60.0665 	 1.9215 	 54.7255 	 24.4501 	 5.3410 	 2.7200
  0.3600 	 1.4750 	 10.0173 	 9.0112 	 1.5969 	 60.0199 	 1.9198 	 54.8114 	 23.7460 	 5.2085 	 2.7200
  0.3600 	 1.4800 	 10.0206 	 9.0097 	 1.5930 	 59.9681 	 1.9181 	 54.8970 	 23.0257 	 5.0711 	 2.7200
  0.3600 	 1.4850 	 10.0239 	 9.0082 	 1.5892 	 59.9106 	 1.9164 	 54.9821 	 22.2875 	 4.9285 	 2.7200
  0.3600 	 1.4900 	 10.0272 	 9.0068 	 1.5854 	 59.8468 	 1.9148 	 55.0668 	 21.5295 	 4.7800 	 2.7200
  0.3600 	 1.4950 	 10.0305 	 9.0053 	 1.5816 	 59.7764 	 1.9131 	 55.1511 	 20.7494 	 4.6253 	 2.7200
  0.3600 	 1.5000 	 10.0337 	 9.0038 	 1.5779 	 59.6986 	 1.9115 	 55.2349 	 19.9446 	 4.4637 	 2.7200
  0.3600 	 1.5050 	 10.0369 	 9.0024 	 1.5741 	 59.6127 	 1.9099 	 55.3184 	 19.1121 	 4.2943 	 2.7200
  0.3600 	 1.5100 	 10.0401 	 9.0010 	 1.5704 	 59.5177 	 1.9083 	 55.4014 	 18.2477 	 4.1163 	 2.7200
  0.3600 	 1.5150 	 10.0433 	 8.9995 	 1.5667 	 59.4124 	 1.9067 	 55.4840 	 17.3469 	 3.9284 	 2.7200
  0.3600 	 1.5200 	 10.0464 	 8.9981 	 1.5630 	 59.2955 	 1.9051 	 55.5662 	 16.4034 	 3.7292 	 2.7200
  0.3600 	 1.5250 	 10.0495 	 8.9967 	 1.5594 	 59.1649 	 1.9035 	 55.6480 	 15.4094 	 3.5169 	 2.7200
  0.3600 	 1.5300 	 10.0526 	 8.9953 	 1.5558 	 59.0181 	 1.9020 	 55.7294 	 14.3543 	 3.2887 	 2.7200
  0.3600 	 1.5350 	 10.0557 	 8.9939 	 1.5522 	 58.8517 	 1.9004 	 55.8105 	 13.2235 	 3.0412 	 2.7200
  0.3600 	 1.5400 	 10.0588 	 8.9926 	 1.5486 	 58.6604 	 1.8989 	 55.8911 	 11.9953 	 2.7693 	 2.7200
  0.3600 	 1.5450 	 10.0618 	 8.9912 	 1.5450 	 58.4361 	 1.8974 	 55.9713 	 10.6362 	 2.4648 	 2.7200
  0.3600 	 1.5500 	 10.0649 	 8.9899 	 1.5415 	 58.1649 	 1.8959 	 56.0511 	 9.0873 	 2.1138 	 2.7200
  0.3600 	 1.5550 	 10.0679 	 8.9885 	 1.5380 	 57.8181 	 1.8944 	 56.1305 	 7.2275 	 1.6876 	 2.7200
  0.3600 	 1.3750 	 9.9420 	 9.0620 	 1.6837 	 60.1533 	 1.9620 	 52.9500 	 35.9048 	 7.2033 	 2.7300
  0.3600 	 1.3800 	 9.9458 	 9.0603 	 1.6793 	 60.1707 	 1.9599 	 53.0448 	 35.3563 	 7.1259 	 2.7300
  0.3600 	 1.3850 	 9.9496 	 9.0585 	 1.6749 	 60.1856 	 1.9579 	 53.1391 	 34.8033 	 7.0465 	 2.7300
  0.3600 	 1.3900 	 9.9534 	 9.0568 	 1.6706 	 60.1981 	 1.9559 	 53.2329 	 34.2458 	 6.9652 	 2.7300
  0.3600 	 1.3950 	 9.9571 	 9.0551 	 1.6663 	 60.2079 	 1.9539 	 53.3262 	 33.6832 	 6.8817 	 2.7300
  0.3600 	 1.4000 	 9.9609 	 9.0534 	 1.6620 	 60.2152 	 1.9519 	 53.4191 	 33.1155 	 6.7961 	 2.7300
  0.3600 	 1.4050 	 9.9646 	 9.0517 	 1.6578 	 60.2197 	 1.9499 	 53.5115 	 32.5421 	 6.7082 	 2.7300
  0.3600 	 1.4100 	 9.9682 	 9.0500 	 1.6536 	 60.2214 	 1.9480 	 53.6034 	 31.9629 	 6.6181 	 2.7300
  0.3600 	 1.4150 	 9.9719 	 9.0484 	 1.6494 	 60.2203 	 1.9460 	 53.6948 	 31.3773 	 6.5255 	 2.7300
  0.3600 	 1.4200 	 9.9755 	 9.0467 	 1.6452 	 60.2162 	 1.9441 	 53.7858 	 30.7851 	 6.4304 	 2.7300
  0.3600 	 1.4250 	 9.9791 	 9.0451 	 1.6411 	 60.2090 	 1.9422 	 53.8763 	 30.1858 	 6.3326 	 2.7300
  0.3600 	 1.4300 	 9.9827 	 9.0435 	 1.6369 	 60.1985 	 1.9404 	 53.9664 	 29.5788 	 6.2322 	 2.7300
  0.3600 	 1.4350 	 9.9862 	 9.0419 	 1.6329 	 60.1848 	 1.9385 	 54.0560 	 28.9637 	 6.1289 	 2.7300
  0.3600 	 1.4400 	 9.9897 	 9.0403 	 1.6288 	 60.1676 	 1.9367 	 54.1451 	 28.3399 	 6.0225 	 2.7300
  0.3600 	 1.4450 	 9.9932 	 9.0387 	 1.6248 	 60.1468 	 1.9348 	 54.2338 	 27.7067 	 5.9130 	 2.7300
  0.3600 	 1.4500 	 9.9967 	 9.0371 	 1.6208 	 60.1222 	 1.9330 	 54.3221 	 27.0635 	 5.8002 	 2.7300
  0.3600 	 1.4550 	 10.0001 	 9.0356 	 1.6168 	 60.0936 	 1.9313 	 54.4099 	 26.4094 	 5.6838 	 2.7300
  0.3600 	 1.4600 	 10.0036 	 9.0340 	 1.6128 	 60.0609 	 1.9295 	 54.4972 	 25.7436 	 5.5637 	 2.7300
  0.3600 	 1.4650 	 10.0070 	 9.0325 	 1.6089 	 60.0237 	 1.9277 	 54.5842 	 25.0651 	 5.4395 	 2.7300
  0.3600 	 1.4700 	 10.0103 	 9.0309 	 1.6050 	 59.9818 	 1.9260 	 54.6706 	 24.3728 	 5.3111 	 2.7300
  0.3600 	 1.4750 	 10.0137 	 9.0294 	 1.6011 	 59.9349 	 1.9243 	 54.7567 	 23.6654 	 5.1782 	 2.7300
  0.3600 	 1.4800 	 10.0170 	 9.0279 	 1.5972 	 59.8826 	 1.9226 	 54.8423 	 22.9415 	 5.0403 	 2.7300
  0.3600 	 1.4850 	 10.0203 	 9.0264 	 1.5934 	 59.8246 	 1.9209 	 54.9275 	 22.1993 	 4.8970 	 2.7300
  0.3600 	 1.4900 	 10.0236 	 9.0249 	 1.5896 	 59.7603 	 1.9192 	 55.0123 	 21.4370 	 4.7480 	 2.7300
  0.3600 	 1.4950 	 10.0269 	 9.0235 	 1.5858 	 59.6892 	 1.9175 	 55.0966 	 20.6523 	 4.5925 	 2.7300
  0.3600 	 1.5000 	 10.0301 	 9.0220 	 1.5820 	 59.6106 	 1.9159 	 55.1806 	 19.8424 	 4.4301 	 2.7300
  0.3600 	 1.5050 	 10.0334 	 9.0206 	 1.5782 	 59.5238 	 1.9143 	 55.2641 	 19.0040 	 4.2597 	 2.7300
  0.3600 	 1.5100 	 10.0366 	 9.0191 	 1.5745 	 59.4278 	 1.9126 	 55.3472 	 18.1333 	 4.0806 	 2.7300
  0.3600 	 1.5150 	 10.0397 	 9.0177 	 1.5708 	 59.3213 	 1.9110 	 55.4299 	 17.2250 	 3.8914 	 2.7300
  0.3600 	 1.5200 	 10.0429 	 9.0163 	 1.5671 	 59.2029 	 1.9095 	 55.5122 	 16.2730 	 3.6907 	 2.7300
  0.3600 	 1.5250 	 10.0460 	 9.0148 	 1.5635 	 59.0705 	 1.9079 	 55.5941 	 15.2690 	 3.4764 	 2.7300
  0.3600 	 1.5300 	 10.0491 	 9.0134 	 1.5598 	 58.9215 	 1.9063 	 55.6756 	 14.2018 	 3.2460 	 2.7300
  0.3600 	 1.5350 	 10.0522 	 9.0121 	 1.5562 	 58.7522 	 1.9048 	 55.7566 	 13.0560 	 2.9955 	 2.7300
  0.3600 	 1.5400 	 10.0553 	 9.0107 	 1.5526 	 58.5570 	 1.9033 	 55.8373 	 11.8085 	 2.7196 	 2.7300
  0.3600 	 1.5450 	 10.0584 	 9.0093 	 1.5491 	 58.3272 	 1.9017 	 55.9176 	 10.4227 	 2.4096 	 2.7300
  0.3600 	 1.5500 	 10.0614 	 9.0079 	 1.5455 	 58.0475 	 1.9002 	 55.9975 	 8.8339 	 2.0500 	 2.7300
  0.3600 	 1.5550 	 10.0644 	 9.0066 	 1.5420 	 57.6849 	 1.8988 	 56.0770 	 6.9030 	 1.6079 	 2.7300
  0.3600 	 1.3750 	 9.9381 	 9.0804 	 1.6881 	 60.0714 	 1.9666 	 52.8939 	 35.8663 	 7.1776 	 2.7400
  0.3600 	 1.3800 	 9.9419 	 9.0786 	 1.6837 	 60.0888 	 1.9646 	 52.9887 	 35.3164 	 7.1001 	 2.7400
  0.3600 	 1.3850 	 9.9458 	 9.0769 	 1.6793 	 60.1037 	 1.9625 	 53.0831 	 34.7621 	 7.0206 	 2.7400
  0.3600 	 1.3900 	 9.9495 	 9.0752 	 1.6750 	 60.1162 	 1.9605 	 53.1770 	 34.2030 	 6.9391 	 2.7400
  0.3600 	 1.3950 	 9.9533 	 9.0734 	 1.6707 	 60.1260 	 1.9585 	 53.2704 	 33.6390 	 6.8556 	 2.7400
  0.3600 	 1.4000 	 9.9570 	 9.0717 	 1.6664 	 60.1332 	 1.9565 	 53.3634 	 33.0696 	 6.7698 	 2.7400
  0.3600 	 1.4050 	 9.9608 	 9.0700 	 1.6621 	 60.1376 	 1.9545 	 53.4558 	 32.4946 	 6.6818 	 2.7400
  0.3600 	 1.4100 	 9.9644 	 9.0684 	 1.6579 	 60.1393 	 1.9525 	 53.5478 	 31.9137 	 6.5915 	 2.7400
  0.3600 	 1.4150 	 9.9681 	 9.0667 	 1.6537 	 60.1381 	 1.9506 	 53.6393 	 31.3264 	 6.4988 	 2.7400
  0.3600 	 1.4200 	 9.9717 	 9.0650 	 1.6495 	 60.1339 	 1.9487 	 53.7304 	 30.7323 	 6.4035 	 2.7400
  0.3600 	 1.4250 	 9.9753 	 9.0634 	 1.6454 	 60.1265 	 1.9468 	 53.8210 	 30.1310 	 6.3056 	 2.7400
  0.3600 	 1.4300 	 9.9789 	 9.0618 	 1.6412 	 60.1160 	 1.9449 	 53.9111 	 29.5221 	 6.2049 	 2.7400
  0.3600 	 1.4350 	 9.9825 	 9.0601 	 1.6371 	 60.1021 	 1.9430 	 54.0008 	 28.9048 	 6.1014 	 2.7400
  0.3600 	 1.4400 	 9.9860 	 9.0585 	 1.6331 	 60.0848 	 1.9412 	 54.0900 	 28.2788 	 5.9948 	 2.7400
  0.3600 	 1.4450 	 9.9895 	 9.0569 	 1.6290 	 60.0638 	 1.9393 	 54.1788 	 27.6433 	 5.8850 	 2.7400
  0.3600 	 1.4500 	 9.9930 	 9.0554 	 1.6250 	 60.0390 	 1.9375 	 54.2671 	 26.9976 	 5.7719 	 2.7400
  0.3600 	 1.4550 	 9.9965 	 9.0538 	 1.6210 	 60.0102 	 1.9357 	 54.3550 	 26.3409 	 5.6552 	 2.7400
  0.3600 	 1.4600 	 9.9999 	 9.0522 	 1.6170 	 59.9771 	 1.9340 	 54.4424 	 25.6724 	 5.5347 	 2.7400
  0.3600 	 1.4650 	 10.0033 	 9.0507 	 1.6131 	 59.9396 	 1.9322 	 54.5294 	 24.9909 	 5.4102 	 2.7400
  0.3600 	 1.4700 	 10.0067 	 9.0491 	 1.6092 	 59.8974 	 1.9304 	 54.6160 	 24.2955 	 5.2814 	 2.7400
  0.3600 	 1.4750 	 10.0101 	 9.0476 	 1.6053 	 59.8501 	 1.9287 	 54.7021 	 23.5847 	 5.1480 	 2.7400
  0.3600 	 1.4800 	 10.0134 	 9.0461 	 1.6014 	 59.7974 	 1.9270 	 54.7878 	 22.8571 	 5.0096 	 2.7400
  0.3600 	 1.4850 	 10.0167 	 9.0446 	 1.5975 	 59.7388 	 1.9253 	 54.8731 	 22.1110 	 4.8657 	 2.7400
  0.3600 	 1.4900 	 10.0200 	 9.0431 	 1.5937 	 59.6740 	 1.9236 	 54.9579 	 21.3444 	 4.7160 	 2.7400
  0.3600 	 1.4950 	 10.0233 	 9.0416 	 1.5899 	 59.6022 	 1.9220 	 55.0424 	 20.5549 	 4.5599 	 2.7400
  0.3600 	 1.5000 	 10.0266 	 9.0402 	 1.5861 	 59.5229 	 1.9203 	 55.1264 	 19.7398 	 4.3965 	 2.7400
  0.3600 	 1.5050 	 10.0298 	 9.0387 	 1.5824 	 59.4352 	 1.9187 	 55.2100 	 18.8956 	 4.2252 	 2.7400
  0.3600 	 1.5100 	 10.0330 	 9.0372 	 1.5786 	 59.3381 	 1.9170 	 55.2931 	 18.0183 	 4.0450 	 2.7400
  0.3600 	 1.5150 	 10.0362 	 9.0358 	 1.5749 	 59.2304 	 1.9154 	 55.3759 	 17.1025 	 3.8545 	 2.7400
  0.3600 	 1.5200 	 10.0394 	 9.0344 	 1.5712 	 59.1105 	 1.9138 	 55.4583 	 16.1418 	 3.6522 	 2.7400
  0.3600 	 1.5250 	 10.0425 	 9.0330 	 1.5676 	 58.9762 	 1.9123 	 55.5402 	 15.1275 	 3.4360 	 2.7400
  0.3600 	 1.5300 	 10.0457 	 9.0315 	 1.5639 	 58.8249 	 1.9107 	 55.6218 	 14.0480 	 3.2031 	 2.7400
  0.3600 	 1.5350 	 10.0488 	 9.0301 	 1.5603 	 58.6526 	 1.9091 	 55.7030 	 12.8866 	 2.9496 	 2.7400
  0.3600 	 1.5400 	 10.0519 	 9.0288 	 1.5567 	 58.4533 	 1.9076 	 55.7837 	 11.6190 	 2.6696 	 2.7400
  0.3600 	 1.5450 	 10.0549 	 9.0274 	 1.5531 	 58.2178 	 1.9061 	 55.8641 	 10.2053 	 2.3537 	 2.7400
  0.3600 	 1.5500 	 10.0580 	 9.0260 	 1.5495 	 57.9289 	 1.9046 	 55.9441 	 8.5736 	 1.9849 	 2.7400
  0.3600 	 1.5550 	 10.0610 	 9.0246 	 1.5460 	 57.5488 	 1.9031 	 56.0236 	 6.5631 	 1.5251 	 2.7400
  0.3600 	 1.3750 	 9.9342 	 9.0988 	 1.6926 	 59.9899 	 1.9713 	 52.8379 	 35.8279 	 7.1520 	 2.7500
  0.3600 	 1.3800 	 9.9381 	 9.0970 	 1.6881 	 60.0073 	 1.9692 	 52.9329 	 35.2766 	 7.0744 	 2.7500
  0.3600 	 1.3850 	 9.9419 	 9.0952 	 1.6838 	 60.0222 	 1.9671 	 53.0273 	 34.7209 	 6.9949 	 2.7500
  0.3600 	 1.3900 	 9.9457 	 9.0935 	 1.6794 	 60.0345 	 1.9651 	 53.1213 	 34.1603 	 6.9133 	 2.7500
  0.3600 	 1.3950 	 9.9495 	 9.0918 	 1.6751 	 60.0443 	 1.9631 	 53.2148 	 33.5947 	 6.8296 	 2.7500
  0.3600 	 1.4000 	 9.9532 	 9.0900 	 1.6708 	 60.0515 	 1.9610 	 53.3078 	 33.0238 	 6.7437 	 2.7500
  0.3600 	 1.4050 	 9.9570 	 9.0883 	 1.6665 	 60.0559 	 1.9591 	 53.4003 	 32.4472 	 6.6556 	 2.7500
  0.3600 	 1.4100 	 9.9607 	 9.0866 	 1.6622 	 60.0575 	 1.9571 	 53.4924 	 31.8645 	 6.5651 	 2.7500
  0.3600 	 1.4150 	 9.9643 	 9.0850 	 1.6580 	 60.0562 	 1.9551 	 53.5840 	 31.2754 	 6.4722 	 2.7500
  0.3600 	 1.4200 	 9.9680 	 9.0833 	 1.6538 	 60.0518 	 1.9532 	 53.6751 	 30.6795 	 6.3768 	 2.7500
  0.3600 	 1.4250 	 9.9716 	 9.0817 	 1.6497 	 60.0444 	 1.9513 	 53.7658 	 30.0763 	 6.2787 	 2.7500
  0.3600 	 1.4300 	 9.9752 	 9.0800 	 1.6455 	 60.0338 	 1.9494 	 53.8560 	 29.4653 	 6.1778 	 2.7500
  0.3600 	 1.4350 	 9.9788 	 9.0784 	 1.6414 	 60.0197 	 1.9475 	 53.9457 	 28.8460 	 6.0740 	 2.7500
  0.3600 	 1.4400 	 9.9823 	 9.0768 	 1.6373 	 60.0022 	 1.9457 	 54.0350 	 28.2177 	 5.9672 	 2.7500
  0.3600 	 1.4450 	 9.9858 	 9.0752 	 1.6333 	 59.9810 	 1.9438 	 54.1239 	 27.5799 	 5.8572 	 2.7500
  0.3600 	 1.4500 	 9.9893 	 9.0736 	 1.6292 	 59.9560 	 1.9420 	 54.2123 	 26.9317 	 5.7438 	 2.7500
  0.3600 	 1.4550 	 9.9928 	 9.0720 	 1.6252 	 59.9270 	 1.9402 	 54.3002 	 26.2724 	 5.6268 	 2.7500
  0.3600 	 1.4600 	 9.9963 	 9.0704 	 1.6212 	 59.8937 	 1.9384 	 54.3877 	 25.6011 	 5.5059 	 2.7500
  0.3600 	 1.4650 	 9.9997 	 9.0689 	 1.6173 	 59.8558 	 1.9367 	 54.4748 	 24.9167 	 5.3810 	 2.7500
  0.3600 	 1.4700 	 10.0031 	 9.0673 	 1.6134 	 59.8133 	 1.9349 	 54.5614 	 24.2180 	 5.2518 	 2.7500
  0.3600 	 1.4750 	 10.0065 	 9.0658 	 1.6094 	 59.7656 	 1.9332 	 54.6476 	 23.5038 	 5.1179 	 2.7500
  0.3600 	 1.4800 	 10.0098 	 9.0643 	 1.6056 	 59.7124 	 1.9314 	 54.7334 	 22.7726 	 4.9790 	 2.7500
  0.3600 	 1.4850 	 10.0132 	 9.0627 	 1.6017 	 59.6534 	 1.9297 	 54.8188 	 22.0225 	 4.8346 	 2.7500
  0.3600 	 1.4900 	 10.0165 	 9.0612 	 1.5979 	 59.5879 	 1.9280 	 54.9037 	 21.2516 	 4.6842 	 2.7500
  0.3600 	 1.4950 	 10.0198 	 9.0598 	 1.5940 	 59.5155 	 1.9264 	 54.9882 	 20.4573 	 4.5273 	 2.7500
  0.3600 	 1.5000 	 10.0230 	 9.0583 	 1.5902 	 59.4354 	 1.9247 	 55.0723 	 19.6369 	 4.3631 	 2.7500
  0.3600 	 1.5050 	 10.0263 	 9.0568 	 1.5865 	 59.3468 	 1.9231 	 55.1560 	 18.7868 	 4.1908 	 2.7500
  0.3600 	 1.5100 	 10.0295 	 9.0553 	 1.5827 	 59.2486 	 1.9214 	 55.2392 	 17.9028 	 4.0094 	 2.7500
  0.3600 	 1.5150 	 10.0327 	 9.0539 	 1.5790 	 59.1396 	 1.9198 	 55.3221 	 16.9794 	 3.8176 	 2.7500
  0.3600 	 1.5200 	 10.0359 	 9.0525 	 1.5753 	 59.0182 	 1.9182 	 55.4045 	 16.0099 	 3.6137 	 2.7500
  0.3600 	 1.5250 	 10.0390 	 9.0510 	 1.5716 	 58.8821 	 1.9166 	 55.4865 	 14.9851 	 3.3955 	 2.7500
  0.3600 	 1.5300 	 10.0422 	 9.0496 	 1.5680 	 58.7283 	 1.9150 	 55.5682 	 13.8927 	 3.1602 	 2.7500
  0.3600 	 1.5350 	 10.0453 	 9.0482 	 1.5643 	 58.5529 	 1.9135 	 55.6494 	 12.7154 	 2.9035 	 2.7500
  0.3600 	 1.5400 	 10.0484 	 9.0468 	 1.5607 	 58.3495 	 1.9119 	 55.7302 	 11.4267 	 2.6192 	 2.7500
  0.3600 	 1.5450 	 10.0515 	 9.0454 	 1.5571 	 58.1078 	 1.9104 	 55.8107 	 9.9836 	 2.2971 	 2.7500
  0.3600 	 1.5500 	 10.0545 	 9.0440 	 1.5535 	 57.8090 	 1.9089 	 55.8907 	 8.3057 	 1.9183 	 2.7500
  0.3600 	 1.5550 	 10.0576 	 9.0427 	 1.5500 	 57.4090 	 1.9074 	 55.9704 	 6.2053 	 1.4386 	 2.7500
  0.3600 	 1.3750 	 9.9303 	 9.1171 	 1.6970 	 59.9087 	 1.9759 	 52.7821 	 35.7895 	 7.1266 	 2.7600
  0.3600 	 1.3800 	 9.9342 	 9.1153 	 1.6926 	 59.9260 	 1.9738 	 52.8771 	 35.2369 	 7.0489 	 2.7600
  0.3600 	 1.3850 	 9.9381 	 9.1136 	 1.6882 	 59.9409 	 1.9717 	 52.9716 	 34.6796 	 6.9692 	 2.7600
  0.3600 	 1.3900 	 9.9419 	 9.1118 	 1.6838 	 59.9532 	 1.9697 	 53.0657 	 34.1176 	 6.8876 	 2.7600
  0.3600 	 1.3950 	 9.9457 	 9.1101 	 1.6794 	 59.9630 	 1.9676 	 53.1592 	 33.5505 	 6.8037 	 2.7600
  0.3600 	 1.4000 	 9.9494 	 9.1083 	 1.6751 	 59.9701 	 1.9656 	 53.2523 	 32.9780 	 6.7177 	 2.7600
  0.3600 	 1.4050 	 9.9532 	 9.1066 	 1.6708 	 59.9744 	 1.9636 	 53.3449 	 32.3997 	 6.6295 	 2.7600
  0.3600 	 1.4100 	 9.9569 	 9.1049 	 1.6666 	 59.9759 	 1.9617 	 53.4371 	 31.8153 	 6.5389 	 2.7600
  0.3600 	 1.4150 	 9.9606 	 9.1032 	 1.6624 	 59.9745 	 1.9597 	 53.5287 	 31.2245 	 6.4458 	 2.7600
  0.3600 	 1.4200 	 9.9642 	 9.1016 	 1.6581 	 59.9701 	 1.9578 	 53.6199 	 30.6267 	 6.3502 	 2.7600
  0.3600 	 1.4250 	 9.9679 	 9.0999 	 1.6540 	 59.9626 	 1.9558 	 53.7107 	 30.0215 	 6.2519 	 2.7600
  0.3600 	 1.4300 	 9.9715 	 9.0982 	 1.6498 	 59.9518 	 1.9539 	 53.8010 	 29.4085 	 6.1508 	 2.7600
  0.3600 	 1.4350 	 9.9751 	 9.0966 	 1.6457 	 59.9376 	 1.9521 	 53.8908 	 28.7871 	 6.0468 	 2.7600
  0.3600 	 1.4400 	 9.9786 	 9.0950 	 1.6416 	 59.9199 	 1.9502 	 53.9802 	 28.1566 	 5.9398 	 2.7600
  0.3600 	 1.4450 	 9.9822 	 9.0934 	 1.6375 	 59.8986 	 1.9483 	 54.0691 	 27.5164 	 5.8295 	 2.7600
  0.3600 	 1.4500 	 9.9857 	 9.0918 	 1.6335 	 59.8733 	 1.9465 	 54.1576 	 26.8657 	 5.7158 	 2.7600
  0.3600 	 1.4550 	 9.9891 	 9.0902 	 1.6295 	 59.8440 	 1.9447 	 54.2456 	 26.2038 	 5.5984 	 2.7600
  0.3600 	 1.4600 	 9.9926 	 9.0886 	 1.6255 	 59.8105 	 1.9429 	 54.3332 	 25.5297 	 5.4773 	 2.7600
  0.3600 	 1.4650 	 9.9960 	 9.0870 	 1.6215 	 59.7723 	 1.9411 	 54.4203 	 24.8423 	 5.3520 	 2.7600
  0.3600 	 1.4700 	 9.9995 	 9.0855 	 1.6175 	 59.7294 	 1.9393 	 54.5071 	 24.1405 	 5.2224 	 2.7600
  0.3600 	 1.4750 	 10.0029 	 9.0839 	 1.6136 	 59.6813 	 1.9376 	 54.5933 	 23.4228 	 5.0880 	 2.7600
  0.3600 	 1.4800 	 10.0062 	 9.0824 	 1.6097 	 59.6277 	 1.9359 	 54.6792 	 22.6879 	 4.9485 	 2.7600
  0.3600 	 1.4850 	 10.0096 	 9.0809 	 1.6059 	 59.5681 	 1.9342 	 54.7646 	 21.9338 	 4.8035 	 2.7600
  0.3600 	 1.4900 	 10.0129 	 9.0794 	 1.6020 	 59.5021 	 1.9325 	 54.8496 	 21.1585 	 4.6525 	 2.7600
  0.3600 	 1.4950 	 10.0162 	 9.0779 	 1.5982 	 59.4290 	 1.9308 	 54.9342 	 20.3594 	 4.4948 	 2.7600
  0.3600 	 1.5000 	 10.0195 	 9.0764 	 1.5944 	 59.3481 	 1.9291 	 55.0184 	 19.5336 	 4.3298 	 2.7600
  0.3600 	 1.5050 	 10.0227 	 9.0749 	 1.5906 	 59.2586 	 1.9274 	 55.1021 	 18.6776 	 4.1565 	 2.7600
  0.3600 	 1.5100 	 10.0260 	 9.0734 	 1.5868 	 59.1594 	 1.9258 	 55.1854 	 17.7868 	 3.9739 	 2.7600
  0.3600 	 1.5150 	 10.0292 	 9.0720 	 1.5831 	 59.0491 	 1.9242 	 55.2684 	 16.8556 	 3.7807 	 2.7600
  0.3600 	 1.5200 	 10.0324 	 9.0705 	 1.5794 	 58.9260 	 1.9226 	 55.3509 	 15.8770 	 3.5751 	 2.7600
  0.3600 	 1.5250 	 10.0355 	 9.0691 	 1.5757 	 58.7880 	 1.9210 	 55.4330 	 14.8415 	 3.3550 	 2.7600
  0.3600 	 1.5300 	 10.0387 	 9.0677 	 1.5720 	 58.6318 	 1.9194 	 55.5147 	 13.7361 	 3.1171 	 2.7600
  0.3600 	 1.5350 	 10.0418 	 9.0662 	 1.5684 	 58.4531 	 1.9178 	 55.5960 	 12.5422 	 2.8571 	 2.7600
  0.3600 	 1.5400 	 10.0449 	 9.0648 	 1.5647 	 58.2453 	 1.9163 	 55.6769 	 11.2316 	 2.5684 	 2.7600
  0.3600 	 1.5450 	 10.0480 	 9.0634 	 1.5611 	 57.9972 	 1.9147 	 55.7574 	 9.7573 	 2.2397 	 2.7600
  0.3600 	 1.5500 	 10.0511 	 9.0621 	 1.5576 	 57.6877 	 1.9132 	 55.8376 	 8.0294 	 1.8501 	 2.7600
  0.3600 	 1.5550 	 10.0542 	 9.0607 	 1.5540 	 57.2649 	 1.9117 	 55.9173 	 5.8264 	 1.3476 	 2.7600
  0.3600 	 1.3750 	 9.9265 	 9.1354 	 1.7014 	 59.8277 	 1.9805 	 52.7264 	 35.7511 	 7.1013 	 2.7700
  0.3600 	 1.3800 	 9.9303 	 9.1336 	 1.6970 	 59.8451 	 1.9784 	 52.8215 	 35.1971 	 7.0235 	 2.7700
  0.3600 	 1.3850 	 9.9342 	 9.1319 	 1.6926 	 59.8599 	 1.9763 	 52.9161 	 34.6384 	 6.9438 	 2.7700
  0.3600 	 1.3900 	 9.9380 	 9.1301 	 1.6882 	 59.8722 	 1.9743 	 53.0102 	 34.0749 	 6.8620 	 2.7700
  0.3600 	 1.3950 	 9.9419 	 9.1283 	 1.6838 	 59.8819 	 1.9722 	 53.1039 	 33.5063 	 6.7780 	 2.7700
  0.3600 	 1.4000 	 9.9456 	 9.1266 	 1.6795 	 59.8890 	 1.9702 	 53.1970 	 32.9322 	 6.6919 	 2.7700
  0.3600 	 1.4050 	 9.9494 	 9.1249 	 1.6752 	 59.8933 	 1.9682 	 53.2897 	 32.3522 	 6.6035 	 2.7700
  0.3600 	 1.4100 	 9.9531 	 9.1232 	 1.6709 	 59.8947 	 1.9662 	 53.3819 	 31.7661 	 6.5128 	 2.7700
  0.3600 	 1.4150 	 9.9568 	 9.1215 	 1.6667 	 59.8932 	 1.9642 	 53.4737 	 31.1735 	 6.4195 	 2.7700
  0.3600 	 1.4200 	 9.9605 	 9.1198 	 1.6625 	 59.8887 	 1.9623 	 53.5650 	 30.5739 	 6.3237 	 2.7700
  0.3600 	 1.4250 	 9.9641 	 9.1181 	 1.6583 	 59.8810 	 1.9604 	 53.6558 	 29.9668 	 6.2253 	 2.7700
  0.3600 	 1.4300 	 9.9677 	 9.1165 	 1.6541 	 59.8701 	 1.9585 	 53.7461 	 29.3517 	 6.1240 	 2.7700
  0.3600 	 1.4350 	 9.9713 	 9.1148 	 1.6500 	 59.8558 	 1.9566 	 53.8360 	 28.7281 	 6.0198 	 2.7700
  0.3600 	 1.4400 	 9.9749 	 9.1132 	 1.6459 	 59.8380 	 1.9547 	 53.9255 	 28.0954 	 5.9125 	 2.7700
  0.3600 	 1.4450 	 9.9785 	 9.1115 	 1.6418 	 59.8164 	 1.9528 	 54.0145 	 27.4528 	 5.8019 	 2.7700
  0.3600 	 1.4500 	 9.9820 	 9.1099 	 1.6377 	 59.7909 	 1.9510 	 54.1030 	 26.7997 	 5.6879 	 2.7700
  0.3600 	 1.4550 	 9.9855 	 9.1083 	 1.6337 	 59.7614 	 1.9492 	 54.1911 	 26.1351 	 5.5703 	 2.7700
  0.3600 	 1.4600 	 9.9890 	 9.1067 	 1.6297 	 59.7276 	 1.9474 	 54.2788 	 25.4582 	 5.4488 	 2.7700
  0.3600 	 1.4650 	 9.9924 	 9.1052 	 1.6257 	 59.6891 	 1.9456 	 54.3660 	 24.7678 	 5.3231 	 2.7700
  0.3600 	 1.4700 	 9.9958 	 9.1036 	 1.6217 	 59.6458 	 1.9438 	 54.4528 	 24.0628 	 5.1930 	 2.7700
  0.3600 	 1.4750 	 9.9992 	 9.1021 	 1.6178 	 59.5973 	 1.9420 	 54.5392 	 23.3417 	 5.0582 	 2.7700
  0.3600 	 1.4800 	 10.0026 	 9.1005 	 1.6139 	 59.5433 	 1.9403 	 54.6251 	 22.6031 	 4.9182 	 2.7700
  0.3600 	 1.4850 	 10.0060 	 9.0990 	 1.6100 	 59.4832 	 1.9386 	 54.7106 	 21.8449 	 4.7726 	 2.7700
  0.3600 	 1.4900 	 10.0093 	 9.0975 	 1.6061 	 59.4166 	 1.9369 	 54.7957 	 21.0651 	 4.6209 	 2.7700
  0.3600 	 1.4950 	 10.0126 	 9.0960 	 1.6023 	 59.3428 	 1.9352 	 54.8803 	 20.2612 	 4.4624 	 2.7700
  0.3600 	 1.5000 	 10.0159 	 9.0945 	 1.5985 	 59.2611 	 1.9335 	 54.9646 	 19.4300 	 4.2965 	 2.7700
  0.3600 	 1.5050 	 10.0192 	 9.0930 	 1.5947 	 59.1706 	 1.9318 	 55.0484 	 18.5679 	 4.1222 	 2.7700
  0.3600 	 1.5100 	 10.0224 	 9.0915 	 1.5909 	 59.0703 	 1.9302 	 55.1318 	 17.6702 	 3.9385 	 2.7700
  0.3600 	 1.5150 	 10.0257 	 9.0900 	 1.5872 	 58.9587 	 1.9286 	 55.2148 	 16.7312 	 3.7439 	 2.7700
  0.3600 	 1.5200 	 10.0289 	 9.0886 	 1.5835 	 58.8340 	 1.9269 	 55.2974 	 15.7434 	 3.5366 	 2.7700
  0.3600 	 1.5250 	 10.0321 	 9.0871 	 1.5798 	 58.6940 	 1.9253 	 55.3796 	 14.6968 	 3.3144 	 2.7700
  0.3600 	 1.5300 	 10.0352 	 9.0857 	 1.5761 	 58.5353 	 1.9237 	 55.4614 	 13.5779 	 3.0739 	 2.7700
  0.3600 	 1.5350 	 10.0384 	 9.0843 	 1.5724 	 58.3533 	 1.9222 	 55.5427 	 12.3669 	 2.8105 	 2.7700
  0.3600 	 1.5400 	 10.0415 	 9.0828 	 1.5688 	 58.1408 	 1.9206 	 55.6237 	 11.0334 	 2.5171 	 2.7700
  0.3600 	 1.5450 	 10.0446 	 9.0814 	 1.5652 	 57.8858 	 1.9191 	 55.7043 	 9.5261 	 2.1815 	 2.7700
  0.3600 	 1.5500 	 10.0477 	 9.0800 	 1.5616 	 57.5646 	 1.9175 	 55.7845 	 7.7439 	 1.7801 	 2.7700
  0.3600 	 1.5550 	 10.0507 	 9.0787 	 1.5580 	 57.1154 	 1.9160 	 55.8643 	 5.4220 	 1.2511 	 2.7700
  0.3600 	 1.3750 	 9.9226 	 9.1537 	 1.7058 	 59.7471 	 1.9852 	 52.6709 	 35.7128 	 7.0762 	 2.7800
  0.3600 	 1.3800 	 9.9265 	 9.1519 	 1.7014 	 59.7644 	 1.9830 	 52.7661 	 35.1573 	 6.9983 	 2.7800
  0.3600 	 1.3850 	 9.9304 	 9.1501 	 1.6970 	 59.7792 	 1.9809 	 52.8608 	 34.5972 	 6.9184 	 2.7800
  0.3600 	 1.3900 	 9.9342 	 9.1484 	 1.6926 	 59.7915 	 1.9789 	 52.9550 	 34.0322 	 6.8365 	 2.7800
  0.3600 	 1.3950 	 9.9380 	 9.1466 	 1.6882 	 59.8012 	 1.9768 	 53.0487 	 33.4621 	 6.7525 	 2.7800
  0.3600 	 1.4000 	 9.9418 	 9.1449 	 1.6838 	 59.8081 	 1.9748 	 53.1419 	 32.8864 	 6.6662 	 2.7800
  0.3600 	 1.4050 	 9.9456 	 9.1431 	 1.6795 	 59.8124 	 1.9728 	 53.2347 	 32.3048 	 6.5777 	 2.7800
  0.3600 	 1.4100 	 9.9493 	 9.1414 	 1.6753 	 59.8137 	 1.9708 	 53.3269 	 31.7170 	 6.4868 	 2.7800
  0.3600 	 1.4150 	 9.9530 	 9.1397 	 1.6710 	 59.8122 	 1.9688 	 53.4188 	 31.1225 	 6.3934 	 2.7800
  0.3600 	 1.4200 	 9.9567 	 9.1380 	 1.6668 	 59.8076 	 1.9668 	 53.5101 	 30.5211 	 6.2974 	 2.7800
  0.3600 	 1.4250 	 9.9604 	 9.1363 	 1.6626 	 59.7998 	 1.9649 	 53.6010 	 29.9120 	 6.1988 	 2.7800
  0.3600 	 1.4300 	 9.9640 	 9.1346 	 1.6584 	 59.7887 	 1.9630 	 53.6914 	 29.2949 	 6.0973 	 2.7800
  0.3600 	 1.4350 	 9.9676 	 9.1330 	 1.6542 	 59.7743 	 1.9611 	 53.7814 	 28.6692 	 5.9929 	 2.7800
  0.3600 	 1.4400 	 9.9712 	 9.1313 	 1.6501 	 59.7562 	 1.9592 	 53.8709 	 28.0342 	 5.8853 	 2.7800
  0.3600 	 1.4450 	 9.9748 	 9.1297 	 1.6460 	 59.7345 	 1.9573 	 53.9600 	 27.3893 	 5.7745 	 2.7800
  0.3600 	 1.4500 	 9.9783 	 9.1281 	 1.6420 	 59.7088 	 1.9555 	 54.0486 	 26.7337 	 5.6602 	 2.7800
  0.3600 	 1.4550 	 9.9818 	 9.1265 	 1.6379 	 59.6790 	 1.9536 	 54.1368 	 26.0664 	 5.5422 	 2.7800
  0.3600 	 1.4600 	 9.9853 	 9.1249 	 1.6339 	 59.6449 	 1.9518 	 54.2245 	 25.3867 	 5.4204 	 2.7800
  0.3600 	 1.4650 	 9.9888 	 9.1233 	 1.6299 	 59.6062 	 1.9500 	 54.3118 	 24.6933 	 5.2943 	 2.7800
  0.3600 	 1.4700 	 9.9922 	 9.1217 	 1.6259 	 59.5625 	 1.9482 	 54.3987 	 23.9850 	 5.1638 	 2.7800
  0.3600 	 1.4750 	 9.9956 	 9.1202 	 1.6220 	 59.5136 	 1.9465 	 54.4851 	 23.2605 	 5.0285 	 2.7800
  0.3600 	 1.4800 	 9.9990 	 9.1186 	 1.6181 	 59.4591 	 1.9447 	 54.5711 	 22.5181 	 4.8880 	 2.7800
  0.3600 	 1.4850 	 10.0024 	 9.1171 	 1.6142 	 59.3985 	 1.9430 	 54.6567 	 21.7558 	 4.7418 	 2.7800
  0.3600 	 1.4900 	 10.0057 	 9.1155 	 1.6103 	 59.3312 	 1.9413 	 54.7419 	 20.9716 	 4.5894 	 2.7800
  0.3600 	 1.4950 	 10.0091 	 9.1140 	 1.6064 	 59.2568 	 1.9396 	 54.8266 	 20.1627 	 4.4302 	 2.7800
  0.3600 	 1.5000 	 10.0124 	 9.1125 	 1.6026 	 59.1743 	 1.9379 	 54.9109 	 19.3261 	 4.2634 	 2.7800
  0.3600 	 1.5050 	 10.0156 	 9.1110 	 1.5988 	 59.0829 	 1.9362 	 54.9948 	 18.4578 	 4.0881 	 2.7800
  0.3600 	 1.5100 	 10.0189 	 9.1095 	 1.5950 	 58.9814 	 1.9346 	 55.0783 	 17.5531 	 3.9031 	 2.7800
  0.3600 	 1.5150 	 10.0221 	 9.1081 	 1.5913 	 58.8684 	 1.9329 	 55.1614 	 16.6061 	 3.7071 	 2.7800
  0.3600 	 1.5200 	 10.0254 	 9.1066 	 1.5875 	 58.7421 	 1.9313 	 55.2440 	 15.6088 	 3.4981 	 2.7800
  0.3600 	 1.5250 	 10.0286 	 9.1051 	 1.5838 	 58.6000 	 1.9297 	 55.3263 	 14.5510 	 3.2738 	 2.7800
  0.3600 	 1.5300 	 10.0317 	 9.1037 	 1.5801 	 58.4387 	 1.9281 	 55.4081 	 13.4182 	 3.0306 	 2.7800
  0.3600 	 1.5350 	 10.0349 	 9.1023 	 1.5765 	 58.2533 	 1.9265 	 55.4896 	 12.1894 	 2.7637 	 2.7800
  0.3600 	 1.5400 	 10.0380 	 9.1008 	 1.5728 	 58.0360 	 1.9249 	 55.5707 	 10.8320 	 2.4653 	 2.7800
  0.3600 	 1.5450 	 10.0411 	 9.0994 	 1.5692 	 57.7737 	 1.9234 	 55.6513 	 9.2896 	 2.1224 	 2.7800
  0.3600 	 1.5500 	 10.0442 	 9.0980 	 1.5656 	 57.4397 	 1.9218 	 55.7316 	 7.4480 	 1.7081 	 2.7800
  0.3600 	 1.3750 	 9.9187 	 9.1720 	 1.7103 	 59.6667 	 1.9898 	 52.6156 	 35.6744 	 7.0512 	 2.7900
  0.3600 	 1.3800 	 9.9226 	 9.1702 	 1.7058 	 59.6840 	 1.9876 	 52.7108 	 35.1176 	 6.9732 	 2.7900
  0.3600 	 1.3850 	 9.9265 	 9.1684 	 1.7014 	 59.6988 	 1.9855 	 52.8055 	 34.5561 	 6.8933 	 2.7900
  0.3600 	 1.3900 	 9.9304 	 9.1666 	 1.6969 	 59.7111 	 1.9835 	 52.8998 	 33.9896 	 6.8112 	 2.7900
  0.3600 	 1.3950 	 9.9342 	 9.1648 	 1.6926 	 59.7207 	 1.9814 	 52.9936 	 33.4179 	 6.7271 	 2.7900
  0.3600 	 1.4000 	 9.9380 	 9.1631 	 1.6882 	 59.7276 	 1.9793 	 53.0869 	 32.8406 	 6.6407 	 2.7900
  0.3600 	 1.4050 	 9.9418 	 9.1613 	 1.6839 	 59.7318 	 1.9773 	 53.1797 	 32.2573 	 6.5520 	 2.7900
  0.3600 	 1.4100 	 9.9455 	 9.1596 	 1.6796 	 59.7331 	 1.9753 	 53.2721 	 31.6678 	 6.4610 	 2.7900
  0.3600 	 1.4150 	 9.9493 	 9.1579 	 1.6753 	 59.7314 	 1.9733 	 53.3640 	 31.0716 	 6.3674 	 2.7900
  0.3600 	 1.4200 	 9.9530 	 9.1562 	 1.6711 	 59.7267 	 1.9714 	 53.4554 	 30.4682 	 6.2713 	 2.7900
  0.3600 	 1.4250 	 9.9566 	 9.1545 	 1.6669 	 59.7188 	 1.9694 	 53.5464 	 29.8572 	 6.1724 	 2.7900
  0.3600 	 1.4300 	 9.9603 	 9.1528 	 1.6627 	 59.7076 	 1.9675 	 53.6369 	 29.2381 	 6.0708 	 2.7900
  0.3600 	 1.4350 	 9.9639 	 9.1511 	 1.6585 	 59.6930 	 1.9656 	 53.7269 	 28.6102 	 5.9661 	 2.7900
  0.3600 	 1.4400 	 9.9675 	 9.1495 	 1.6544 	 59.6748 	 1.9637 	 53.8165 	 27.9730 	 5.8583 	 2.7900
  0.3600 	 1.4450 	 9.9711 	 9.1478 	 1.6503 	 59.6529 	 1.9618 	 53.9057 	 27.3257 	 5.7472 	 2.7900
  0.3600 	 1.4500 	 9.9746 	 9.1462 	 1.6462 	 59.6270 	 1.9599 	 53.9943 	 26.6676 	 5.6326 	 2.7900
  0.3600 	 1.4550 	 9.9782 	 9.1446 	 1.6421 	 59.5970 	 1.9581 	 54.0826 	 25.9977 	 5.5144 	 2.7900
  0.3600 	 1.4600 	 9.9817 	 9.1430 	 1.6381 	 59.5625 	 1.9563 	 54.1704 	 25.3151 	 5.3921 	 2.7900
  0.3600 	 1.4650 	 9.9851 	 9.1414 	 1.6341 	 59.5235 	 1.9545 	 54.2578 	 24.6186 	 5.2657 	 2.7900
  0.3600 	 1.4700 	 9.9886 	 9.1398 	 1.6301 	 59.4795 	 1.9527 	 54.3447 	 23.9071 	 5.1348 	 2.7900
  0.3600 	 1.4750 	 9.9920 	 9.1382 	 1.6262 	 59.4302 	 1.9509 	 54.4312 	 23.1791 	 4.9989 	 2.7900
  0.3600 	 1.4800 	 9.9954 	 9.1367 	 1.6222 	 59.3752 	 1.9491 	 54.5173 	 22.4329 	 4.8579 	 2.7900
  0.3600 	 1.4850 	 9.9988 	 9.1351 	 1.6183 	 59.3140 	 1.9474 	 54.6030 	 21.6666 	 4.7111 	 2.7900
  0.3600 	 1.4900 	 10.0022 	 9.1336 	 1.6144 	 59.2462 	 1.9457 	 54.6882 	 20.8778 	 4.5580 	 2.7900
  0.3600 	 1.4950 	 10.0055 	 9.1321 	 1.6106 	 59.1710 	 1.9440 	 54.7730 	 20.0640 	 4.3980 	 2.7900
  0.3600 	 1.5000 	 10.0088 	 9.1305 	 1.6067 	 59.0877 	 1.9423 	 54.8574 	 19.2218 	 4.2303 	 2.7900
  0.3600 	 1.5050 	 10.0121 	 9.1290 	 1.6029 	 58.9953 	 1.9406 	 54.9414 	 18.3473 	 4.0540 	 2.7900
  0.3600 	 1.5100 	 10.0154 	 9.1275 	 1.5991 	 58.8927 	 1.9389 	 55.0249 	 17.4355 	 3.8678 	 2.7900
  0.3600 	 1.5150 	 10.0186 	 9.1261 	 1.5954 	 58.7784 	 1.9373 	 55.1081 	 16.4802 	 3.6703 	 2.7900
  0.3600 	 1.5200 	 10.0219 	 9.1246 	 1.5916 	 58.6504 	 1.9357 	 55.1908 	 15.4734 	 3.4596 	 2.7900
  0.3600 	 1.5250 	 10.0251 	 9.1231 	 1.5879 	 58.5062 	 1.9340 	 55.2731 	 14.4040 	 3.2331 	 2.7900
  0.3600 	 1.5300 	 10.0283 	 9.1217 	 1.5842 	 58.3422 	 1.9324 	 55.3551 	 13.2569 	 2.9871 	 2.7900
  0.3600 	 1.5350 	 10.0314 	 9.1202 	 1.5805 	 58.1532 	 1.9308 	 55.4366 	 12.0097 	 2.7166 	 2.7900
  0.3600 	 1.5400 	 10.0346 	 9.1188 	 1.5768 	 57.9308 	 1.9293 	 55.5177 	 10.6272 	 2.4131 	 2.7900
  0.3600 	 1.5450 	 10.0377 	 9.1174 	 1.5732 	 57.6607 	 1.9277 	 55.5985 	 9.0475 	 2.0622 	 2.7900
  0.3600 	 1.5500 	 10.0408 	 9.1160 	 1.5696 	 57.3126 	 1.9262 	 55.6788 	 7.1405 	 1.6337 	 2.7900
  0.3700 	 1.3850 	 9.9611 	 9.0033 	 1.6575 	 60.7869 	 1.9440 	 53.3078 	 35.6695 	 7.4790 	 2.7000
  0.3700 	 1.3900 	 9.9649 	 9.0016 	 1.6532 	 60.8029 	 1.9420 	 53.4014 	 35.1417 	 7.4015 	 2.7000
  0.3700 	 1.3950 	 9.9686 	 8.9999 	 1.6490 	 60.8166 	 1.9401 	 53.4945 	 34.6099 	 7.3220 	 2.7000
  0.3700 	 1.4000 	 9.9723 	 8.9982 	 1.6447 	 60.8278 	 1.9381 	 53.5872 	 34.0738 	 7.2406 	 2.7000
  0.3700 	 1.4050 	 9.9759 	 8.9966 	 1.6405 	 60.8365 	 1.9362 	 53.6793 	 33.5332 	 7.1572 	 2.7000
  0.3700 	 1.4100 	 9.9796 	 8.9949 	 1.6363 	 60.8427 	 1.9342 	 53.7710 	 32.9879 	 7.0717 	 2.7000
  0.3700 	 1.4150 	 9.9832 	 8.9933 	 1.6322 	 60.8462 	 1.9323 	 53.8622 	 32.4375 	 6.9840 	 2.7000
  0.3700 	 1.4200 	 9.9867 	 8.9917 	 1.6280 	 60.8471 	 1.9305 	 53.9530 	 31.8818 	 6.8941 	 2.7000
  0.3700 	 1.4250 	 9.9903 	 8.9901 	 1.6239 	 60.8451 	 1.9286 	 54.0433 	 31.3204 	 6.8019 	 2.7000
  0.3700 	 1.4300 	 9.9938 	 8.9885 	 1.6199 	 60.8403 	 1.9268 	 54.1331 	 30.7529 	 6.7073 	 2.7000
  0.3700 	 1.4350 	 9.9973 	 8.9869 	 1.6158 	 60.8326 	 1.9249 	 54.2225 	 30.1791 	 6.6101 	 2.7000
  0.3700 	 1.4400 	 10.0008 	 8.9854 	 1.6118 	 60.8218 	 1.9231 	 54.3114 	 29.5984 	 6.5104 	 2.7000
  0.3700 	 1.4450 	 10.0043 	 8.9838 	 1.6078 	 60.8077 	 1.9213 	 54.3998 	 29.0104 	 6.4079 	 2.7000
  0.3700 	 1.4500 	 10.0077 	 8.9823 	 1.6038 	 60.7904 	 1.9195 	 54.4879 	 28.4147 	 6.3026 	 2.7000
  0.3700 	 1.4550 	 10.0111 	 8.9807 	 1.5999 	 60.7697 	 1.9178 	 54.5754 	 27.8106 	 6.1942 	 2.7000
  0.3700 	 1.4600 	 10.0145 	 8.9792 	 1.5959 	 60.7453 	 1.9160 	 54.6626 	 27.1975 	 6.0827 	 2.7000
  0.3700 	 1.4650 	 10.0179 	 8.9777 	 1.5920 	 60.7172 	 1.9143 	 54.7493 	 26.5749 	 5.9679 	 2.7000
  0.3700 	 1.4700 	 10.0212 	 8.9762 	 1.5881 	 60.6851 	 1.9126 	 54.8355 	 25.9419 	 5.8496 	 2.7000
  0.3700 	 1.4750 	 10.0245 	 8.9747 	 1.5843 	 60.6489 	 1.9109 	 54.9213 	 25.2978 	 5.7276 	 2.7000
  0.3700 	 1.4800 	 10.0278 	 8.9732 	 1.5805 	 60.6083 	 1.9092 	 55.0067 	 24.6416 	 5.6015 	 2.7000
  0.3700 	 1.4850 	 10.0311 	 8.9718 	 1.5767 	 60.5630 	 1.9076 	 55.0917 	 23.9722 	 5.4713 	 2.7000
  0.3700 	 1.4900 	 10.0344 	 8.9703 	 1.5729 	 60.5127 	 1.9059 	 55.1762 	 23.2886 	 5.3365 	 2.7000
  0.3700 	 1.4950 	 10.0376 	 8.9689 	 1.5691 	 60.4572 	 1.9043 	 55.2604 	 22.5893 	 5.1968 	 2.7000
  0.3700 	 1.5000 	 10.0408 	 8.9674 	 1.5654 	 60.3959 	 1.9027 	 55.3441 	 21.8728 	 5.0519 	 2.7000
  0.3700 	 1.5050 	 10.0440 	 8.9660 	 1.5617 	 60.3285 	 1.9010 	 55.4274 	 21.1372 	 4.9012 	 2.7000
  0.3700 	 1.5100 	 10.0471 	 8.9646 	 1.5580 	 60.2544 	 1.8995 	 55.5102 	 20.3806 	 4.7442 	 2.7000
  0.3700 	 1.5150 	 10.0503 	 8.9632 	 1.5543 	 60.1730 	 1.8979 	 55.5927 	 19.6003 	 4.5803 	 2.7000
  0.3700 	 1.5200 	 10.0534 	 8.9618 	 1.5506 	 60.0834 	 1.8963 	 55.6747 	 18.7934 	 4.4087 	 2.7000
  0.3700 	 1.5250 	 10.0565 	 8.9604 	 1.5470 	 59.9849 	 1.8948 	 55.7564 	 17.9562 	 4.2285 	 2.7000
  0.3700 	 1.5300 	 10.0596 	 8.9590 	 1.5434 	 59.8762 	 1.8932 	 55.8376 	 17.0842 	 4.0385 	 2.7000
  0.3700 	 1.5350 	 10.0627 	 8.9577 	 1.5398 	 59.7559 	 1.8917 	 55.9185 	 16.1718 	 3.8374 	 2.7000
  0.3700 	 1.5400 	 10.0657 	 8.9563 	 1.5362 	 59.6221 	 1.8902 	 55.9990 	 15.2115 	 3.6232 	 2.7000
  0.3700 	 1.5450 	 10.0687 	 8.9549 	 1.5327 	 59.4725 	 1.8887 	 56.0790 	 14.1937 	 3.3934 	 2.7000
  0.3700 	 1.5500 	 10.0717 	 8.9536 	 1.5292 	 59.3035 	 1.8872 	 56.1587 	 13.1047 	 3.1448 	 2.7000
  0.3700 	 1.5550 	 10.0747 	 8.9523 	 1.5257 	 59.1103 	 1.8858 	 56.2380 	 11.9251 	 2.8724 	 2.7000
  0.3700 	 1.5600 	 10.0777 	 8.9510 	 1.5222 	 58.8855 	 1.8843 	 56.3168 	 10.6247 	 2.5686 	 2.7000
  0.3700 	 1.5650 	 10.0806 	 8.9496 	 1.5187 	 58.6161 	 1.8829 	 56.3953 	 9.1519 	 2.2207 	 2.7000
  0.3700 	 1.5700 	 10.0836 	 8.9483 	 1.5153 	 58.2768 	 1.8815 	 56.4735 	 7.4045 	 1.8033 	 2.7000
  0.3700 	 1.5750 	 10.0865 	 8.9471 	 1.5119 	 57.7997 	 1.8800 	 56.5512 	 5.1079 	 1.2485 	 2.7000
  0.3700 	 1.3850 	 9.9573 	 9.0217 	 1.6620 	 60.7035 	 1.9486 	 53.2514 	 35.6316 	 7.4521 	 2.7100
  0.3700 	 1.3900 	 9.9610 	 9.0200 	 1.6576 	 60.7196 	 1.9466 	 53.3451 	 35.1024 	 7.3745 	 2.7100
  0.3700 	 1.3950 	 9.9648 	 9.0183 	 1.6534 	 60.7332 	 1.9447 	 53.4383 	 34.5692 	 7.2949 	 2.7100
  0.3700 	 1.4000 	 9.9685 	 9.0166 	 1.6491 	 60.7444 	 1.9427 	 53.5310 	 34.0317 	 7.2134 	 2.7100
  0.3700 	 1.4050 	 9.9721 	 9.0150 	 1.6449 	 60.7531 	 1.9407 	 53.6232 	 33.4897 	 7.1298 	 2.7100
  0.3700 	 1.4100 	 9.9758 	 9.0133 	 1.6407 	 60.7592 	 1.9388 	 53.7150 	 32.9428 	 7.0442 	 2.7100
  0.3700 	 1.4150 	 9.9794 	 9.0117 	 1.6365 	 60.7627 	 1.9369 	 53.8063 	 32.3908 	 6.9564 	 2.7100
  0.3700 	 1.4200 	 9.9830 	 9.0101 	 1.6324 	 60.7635 	 1.9350 	 53.8971 	 31.8335 	 6.8664 	 2.7100
  0.3700 	 1.4250 	 9.9866 	 9.0085 	 1.6283 	 60.7614 	 1.9331 	 53.9875 	 31.2704 	 6.7740 	 2.7100
  0.3700 	 1.4300 	 9.9901 	 9.0069 	 1.6242 	 60.7565 	 1.9313 	 54.0774 	 30.7011 	 6.6792 	 2.7100
  0.3700 	 1.4350 	 9.9936 	 9.0053 	 1.6201 	 60.7487 	 1.9295 	 54.1668 	 30.1254 	 6.5819 	 2.7100
  0.3700 	 1.4400 	 9.9971 	 9.0037 	 1.6161 	 60.7377 	 1.9276 	 54.2558 	 29.5428 	 6.4819 	 2.7100
  0.3700 	 1.4450 	 10.0006 	 9.0021 	 1.6121 	 60.7236 	 1.9258 	 54.3443 	 28.9528 	 6.3792 	 2.7100
  0.3700 	 1.4500 	 10.0040 	 9.0006 	 1.6081 	 60.7061 	 1.9240 	 54.4324 	 28.3550 	 6.2737 	 2.7100
  0.3700 	 1.4550 	 10.0075 	 8.9990 	 1.6041 	 60.6852 	 1.9223 	 54.5201 	 27.7487 	 6.1651 	 2.7100
  0.3700 	 1.4600 	 10.0109 	 8.9975 	 1.6002 	 60.6606 	 1.9205 	 54.6073 	 27.1333 	 6.0533 	 2.7100
  0.3700 	 1.4650 	 10.0142 	 8.9960 	 1.5962 	 60.6323 	 1.9188 	 54.6941 	 26.5082 	 5.9382 	 2.7100
  0.3700 	 1.4700 	 10.0176 	 8.9945 	 1.5924 	 60.5999 	 1.9171 	 54.7804 	 25.8726 	 5.8195 	 2.7100
  0.3700 	 1.4750 	 10.0209 	 8.9930 	 1.5885 	 60.5634 	 1.9154 	 54.8663 	 25.2258 	 5.6971 	 2.7100
  0.3700 	 1.4800 	 10.0242 	 8.9915 	 1.5846 	 60.5225 	 1.9137 	 54.9518 	 24.5666 	 5.5707 	 2.7100
  0.3700 	 1.4850 	 10.0275 	 8.9900 	 1.5808 	 60.4768 	 1.9120 	 55.0368 	 23.8941 	 5.4400 	 2.7100
  0.3700 	 1.4900 	 10.0308 	 8.9885 	 1.5770 	 60.4262 	 1.9103 	 55.1214 	 23.2071 	 5.3047 	 2.7100
  0.3700 	 1.4950 	 10.0340 	 8.9871 	 1.5733 	 60.3702 	 1.9087 	 55.2056 	 22.5042 	 5.1645 	 2.7100
  0.3700 	 1.5000 	 10.0372 	 8.9856 	 1.5695 	 60.3084 	 1.9071 	 55.2894 	 21.7838 	 5.0190 	 2.7100
  0.3700 	 1.5050 	 10.0404 	 8.9842 	 1.5658 	 60.2404 	 1.9055 	 55.3728 	 21.0440 	 4.8676 	 2.7100
  0.3700 	 1.5100 	 10.0436 	 8.9828 	 1.5621 	 60.1656 	 1.9039 	 55.4557 	 20.2827 	 4.7098 	 2.7100
  0.3700 	 1.5150 	 10.0468 	 8.9814 	 1.5584 	 60.0834 	 1.9023 	 55.5383 	 19.4973 	 4.5451 	 2.7100
  0.3700 	 1.5200 	 10.0499 	 8.9800 	 1.5547 	 59.9929 	 1.9007 	 55.6204 	 18.6847 	 4.3725 	 2.7100
  0.3700 	 1.5250 	 10.0530 	 8.9786 	 1.5511 	 59.8933 	 1.8991 	 55.7022 	 17.8411 	 4.1911 	 2.7100
  0.3700 	 1.5300 	 10.0561 	 8.9772 	 1.5475 	 59.7833 	 1.8976 	 55.7835 	 16.9618 	 3.9998 	 2.7100
  0.3700 	 1.5350 	 10.0592 	 8.9758 	 1.5439 	 59.6615 	 1.8961 	 55.8644 	 16.0410 	 3.7971 	 2.7100
  0.3700 	 1.5400 	 10.0622 	 8.9744 	 1.5403 	 59.5259 	 1.8946 	 55.9449 	 15.0709 	 3.5809 	 2.7100
  0.3700 	 1.5450 	 10.0653 	 8.9731 	 1.5367 	 59.3739 	 1.8931 	 56.0251 	 14.0412 	 3.3488 	 2.7100
  0.3700 	 1.5500 	 10.0683 	 8.9717 	 1.5332 	 59.2020 	 1.8916 	 56.1048 	 12.9376 	 3.0972 	 2.7100
  0.3700 	 1.5550 	 10.0713 	 8.9704 	 1.5297 	 59.0050 	 1.8901 	 56.1842 	 11.7393 	 2.8208 	 2.7100
  0.3700 	 1.5600 	 10.0743 	 8.9691 	 1.5262 	 58.7746 	 1.8886 	 56.2631 	 10.4136 	 2.5115 	 2.7100
  0.3700 	 1.5650 	 10.0772 	 8.9678 	 1.5227 	 58.4969 	 1.8872 	 56.3417 	 8.9034 	 2.1552 	 2.7100
  0.3700 	 1.5700 	 10.0802 	 8.9664 	 1.5193 	 58.1429 	 1.8858 	 56.4199 	 7.0920 	 1.7230 	 2.7100
  0.3700 	 1.3850 	 9.9534 	 9.0401 	 1.6664 	 60.6205 	 1.9533 	 53.1952 	 35.5937 	 7.4253 	 2.7200
  0.3700 	 1.3900 	 9.9572 	 9.0384 	 1.6621 	 60.6365 	 1.9513 	 53.2889 	 35.0632 	 7.3476 	 2.7200
  0.3700 	 1.3950 	 9.9610 	 9.0367 	 1.6578 	 60.6501 	 1.9493 	 53.3822 	 34.5286 	 7.2679 	 2.7200
  0.3700 	 1.4000 	 9.9647 	 9.0350 	 1.6535 	 60.6613 	 1.9473 	 53.4750 	 33.9896 	 7.1863 	 2.7200
  0.3700 	 1.4050 	 9.9683 	 9.0334 	 1.6493 	 60.6699 	 1.9453 	 53.5673 	 33.4461 	 7.1027 	 2.7200
  0.3700 	 1.4100 	 9.9720 	 9.0317 	 1.6450 	 60.6760 	 1.9434 	 53.6591 	 32.8977 	 7.0169 	 2.7200
  0.3700 	 1.4150 	 9.9756 	 9.0300 	 1.6409 	 60.6794 	 1.9415 	 53.7505 	 32.3442 	 6.9290 	 2.7200
  0.3700 	 1.4200 	 9.9792 	 9.0284 	 1.6367 	 60.6801 	 1.9396 	 53.8414 	 31.7851 	 6.8388 	 2.7200
  0.3700 	 1.4250 	 9.9828 	 9.0268 	 1.6326 	 60.6780 	 1.9377 	 53.9318 	 31.2203 	 6.7462 	 2.7200
  0.3700 	 1.4300 	 9.9864 	 9.0252 	 1.6285 	 60.6731 	 1.9358 	 54.0218 	 30.6493 	 6.6513 	 2.7200
  0.3700 	 1.4350 	 9.9899 	 9.0236 	 1.6244 	 60.6651 	 1.9340 	 54.1113 	 30.0718 	 6.5538 	 2.7200
  0.3700 	 1.4400 	 9.9934 	 9.0220 	 1.6203 	 60.6540 	 1.9321 	 54.2004 	 29.4872 	 6.4536 	 2.7200
  0.3700 	 1.4450 	 9.9969 	 9.0204 	 1.6163 	 60.6397 	 1.9303 	 54.2890 	 28.8952 	 6.3507 	 2.7200
  0.3700 	 1.4500 	 10.0004 	 9.0189 	 1.6123 	 60.6221 	 1.9285 	 54.3772 	 28.2952 	 6.2449 	 2.7200
  0.3700 	 1.4550 	 10.0038 	 9.0173 	 1.6083 	 60.6010 	 1.9268 	 54.4649 	 27.6867 	 6.1361 	 2.7200
  0.3700 	 1.4600 	 10.0072 	 9.0158 	 1.6044 	 60.5762 	 1.9250 	 54.5522 	 27.0690 	 6.0240 	 2.7200
  0.3700 	 1.4650 	 10.0106 	 9.0142 	 1.6005 	 60.5476 	 1.9233 	 54.6390 	 26.4414 	 5.9086 	 2.7200
  0.3700 	 1.4700 	 10.0140 	 9.0127 	 1.5966 	 60.5151 	 1.9215 	 54.7255 	 25.8033 	 5.7896 	 2.7200
  0.3700 	 1.4750 	 10.0173 	 9.0112 	 1.5927 	 60.4783 	 1.9198 	 54.8114 	 25.1536 	 5.6668 	 2.7200
  0.3700 	 1.4800 	 10.0206 	 9.0097 	 1.5888 	 60.4370 	 1.9181 	 54.8970 	 24.4915 	 5.5400 	 2.7200
  0.3700 	 1.4850 	 10.0239 	 9.0082 	 1.5850 	 60.3910 	 1.9164 	 54.9821 	 23.8159 	 5.4089 	 2.7200
  0.3700 	 1.4900 	 10.0272 	 9.0068 	 1.5812 	 60.3399 	 1.9148 	 55.0668 	 23.1255 	 5.2731 	 2.7200
  0.3700 	 1.4950 	 10.0305 	 9.0053 	 1.5774 	 60.2834 	 1.9131 	 55.1511 	 22.4190 	 5.1323 	 2.7200
  0.3700 	 1.5000 	 10.0337 	 9.0038 	 1.5736 	 60.2211 	 1.9115 	 55.2349 	 21.6946 	 4.9862 	 2.7200
  0.3700 	 1.5050 	 10.0369 	 9.0024 	 1.5699 	 60.1525 	 1.9099 	 55.3184 	 20.9506 	 4.8341 	 2.7200
  0.3700 	 1.5100 	 10.0401 	 9.0010 	 1.5662 	 60.0770 	 1.9083 	 55.4014 	 20.1846 	 4.6756 	 2.7200
  0.3700 	 1.5150 	 10.0433 	 8.9995 	 1.5625 	 59.9940 	 1.9067 	 55.4840 	 19.3940 	 4.5100 	 2.7200
  0.3700 	 1.5200 	 10.0464 	 8.9981 	 1.5588 	 59.9026 	 1.9051 	 55.5662 	 18.5756 	 4.3364 	 2.7200
  0.3700 	 1.5250 	 10.0495 	 8.9967 	 1.5552 	 59.8019 	 1.9035 	 55.6480 	 17.7254 	 4.1538 	 2.7200
  0.3700 	 1.5300 	 10.0526 	 8.9953 	 1.5515 	 59.6906 	 1.9020 	 55.7294 	 16.8388 	 3.9612 	 2.7200
  0.3700 	 1.5350 	 10.0557 	 8.9939 	 1.5479 	 59.5672 	 1.9004 	 55.8105 	 15.9094 	 3.7568 	 2.7200
  0.3700 	 1.5400 	 10.0588 	 8.9926 	 1.5444 	 59.4297 	 1.8989 	 55.8911 	 14.9291 	 3.5387 	 2.7200
  0.3700 	 1.5450 	 10.0618 	 8.9912 	 1.5408 	 59.2754 	 1.8974 	 55.9713 	 13.8873 	 3.3041 	 2.7200
  0.3700 	 1.5500 	 10.0649 	 8.9899 	 1.5372 	 59.1005 	 1.8959 	 56.0511 	 12.7687 	 3.0494 	 2.7200
  0.3700 	 1.5550 	 10.0679 	 8.9885 	 1.5337 	 58.8994 	 1.8944 	 56.1305 	 11.5509 	 2.7688 	 2.7200
  0.3700 	 1.5600 	 10.0709 	 8.9872 	 1.5302 	 58.6633 	 1.8930 	 56.2096 	 10.1985 	 2.4537 	 2.7200
  0.3700 	 1.5650 	 10.0738 	 8.9858 	 1.5267 	 58.3766 	 1.8915 	 56.2882 	 8.6483 	 2.0884 	 2.7200
  0.3700 	 1.5700 	 10.0768 	 8.9845 	 1.5233 	 58.0063 	 1.8901 	 56.3665 	 6.7657 	 1.6398 	 2.7200
  0.3700 	 1.3850 	 9.9496 	 9.0585 	 1.6708 	 60.5378 	 1.9579 	 53.1391 	 35.5558 	 7.3987 	 2.7300
  0.3700 	 1.3900 	 9.9534 	 9.0568 	 1.6665 	 60.5538 	 1.9559 	 53.2329 	 35.0239 	 7.3209 	 2.7300
  0.3700 	 1.3950 	 9.9571 	 9.0551 	 1.6621 	 60.5674 	 1.9539 	 53.3262 	 34.4879 	 7.2411 	 2.7300
  0.3700 	 1.4000 	 9.9609 	 9.0534 	 1.6579 	 60.5785 	 1.9519 	 53.4191 	 33.9476 	 7.1594 	 2.7300
  0.3700 	 1.4050 	 9.9646 	 9.0517 	 1.6536 	 60.5871 	 1.9499 	 53.5115 	 33.4025 	 7.0756 	 2.7300
  0.3700 	 1.4100 	 9.9682 	 9.0500 	 1.6494 	 60.5931 	 1.9480 	 53.6034 	 32.8526 	 6.9897 	 2.7300
  0.3700 	 1.4150 	 9.9719 	 9.0484 	 1.6452 	 60.5965 	 1.9460 	 53.6948 	 32.2975 	 6.9017 	 2.7300
  0.3700 	 1.4200 	 9.9755 	 9.0467 	 1.6410 	 60.5971 	 1.9441 	 53.7858 	 31.7368 	 6.8113 	 2.7300
  0.3700 	 1.4250 	 9.9791 	 9.0451 	 1.6369 	 60.5949 	 1.9422 	 53.8763 	 31.1703 	 6.7186 	 2.7300
  0.3700 	 1.4300 	 9.9827 	 9.0435 	 1.6328 	 60.5899 	 1.9404 	 53.9664 	 30.5975 	 6.6235 	 2.7300
  0.3700 	 1.4350 	 9.9862 	 9.0419 	 1.6287 	 60.5818 	 1.9385 	 54.0560 	 30.0181 	 6.5258 	 2.7300
  0.3700 	 1.4400 	 9.9897 	 9.0403 	 1.6246 	 60.5706 	 1.9367 	 54.1451 	 29.4316 	 6.4255 	 2.7300
  0.3700 	 1.4450 	 9.9932 	 9.0387 	 1.6206 	 60.5562 	 1.9348 	 54.2338 	 28.8376 	 6.3223 	 2.7300
  0.3700 	 1.4500 	 9.9967 	 9.0371 	 1.6166 	 60.5384 	 1.9330 	 54.3221 	 28.2355 	 6.2163 	 2.7300
  0.3700 	 1.4550 	 10.0001 	 9.0356 	 1.6126 	 60.5171 	 1.9313 	 54.4099 	 27.6247 	 6.1072 	 2.7300
  0.3700 	 1.4600 	 10.0036 	 9.0340 	 1.6086 	 60.4921 	 1.9295 	 54.4972 	 27.0047 	 5.9949 	 2.7300
  0.3700 	 1.4650 	 10.0070 	 9.0325 	 1.6047 	 60.4633 	 1.9277 	 54.5842 	 26.3746 	 5.8792 	 2.7300
  0.3700 	 1.4700 	 10.0103 	 9.0309 	 1.6008 	 60.4305 	 1.9260 	 54.6706 	 25.7338 	 5.7598 	 2.7300
  0.3700 	 1.4750 	 10.0137 	 9.0294 	 1.5969 	 60.3934 	 1.9243 	 54.7567 	 25.0814 	 5.6367 	 2.7300
  0.3700 	 1.4800 	 10.0170 	 9.0279 	 1.5930 	 60.3518 	 1.9226 	 54.8423 	 24.4164 	 5.5095 	 2.7300
  0.3700 	 1.4850 	 10.0203 	 9.0264 	 1.5892 	 60.3054 	 1.9209 	 54.9275 	 23.7376 	 5.3779 	 2.7300
  0.3700 	 1.4900 	 10.0236 	 9.0249 	 1.5853 	 60.2539 	 1.9192 	 55.0123 	 23.0438 	 5.2416 	 2.7300
  0.3700 	 1.4950 	 10.0269 	 9.0235 	 1.5816 	 60.1970 	 1.9175 	 55.0966 	 22.3336 	 5.1003 	 2.7300
  0.3700 	 1.5000 	 10.0301 	 9.0220 	 1.5778 	 60.1341 	 1.9159 	 55.1806 	 21.6053 	 4.9535 	 2.7300
  0.3700 	 1.5050 	 10.0334 	 9.0206 	 1.5740 	 60.0649 	 1.9143 	 55.2641 	 20.8569 	 4.8008 	 2.7300
  0.3700 	 1.5100 	 10.0366 	 9.0191 	 1.5703 	 59.9887 	 1.9126 	 55.3472 	 20.0861 	 4.6415 	 2.7300
  0.3700 	 1.5150 	 10.0397 	 9.0177 	 1.5666 	 59.9048 	 1.9110 	 55.4299 	 19.2902 	 4.4749 	 2.7300
  0.3700 	 1.5200 	 10.0429 	 9.0163 	 1.5629 	 59.8125 	 1.9095 	 55.5122 	 18.4660 	 4.3003 	 2.7300
  0.3700 	 1.5250 	 10.0460 	 9.0148 	 1.5593 	 59.7107 	 1.9079 	 55.5941 	 17.6093 	 4.1166 	 2.7300
  0.3700 	 1.5300 	 10.0491 	 9.0134 	 1.5556 	 59.5981 	 1.9063 	 55.6756 	 16.7150 	 3.9226 	 2.7300
  0.3700 	 1.5350 	 10.0522 	 9.0121 	 1.5520 	 59.4731 	 1.9048 	 55.7566 	 15.7769 	 3.7165 	 2.7300
  0.3700 	 1.5400 	 10.0553 	 9.0107 	 1.5484 	 59.3337 	 1.9033 	 55.8373 	 14.7863 	 3.4964 	 2.7300
  0.3700 	 1.5450 	 10.0584 	 9.0093 	 1.5448 	 59.1769 	 1.9017 	 55.9176 	 13.7320 	 3.2593 	 2.7300
  0.3700 	 1.5500 	 10.0614 	 9.0079 	 1.5413 	 58.9988 	 1.9002 	 55.9975 	 12.5978 	 3.0013 	 2.7300
  0.3700 	 1.5550 	 10.0644 	 9.0066 	 1.5377 	 58.7935 	 1.8988 	 56.0770 	 11.3598 	 2.7165 	 2.7300
  0.3700 	 1.5600 	 10.0674 	 9.0052 	 1.5342 	 58.5513 	 1.8973 	 56.1561 	 9.9792 	 2.3952 	 2.7300
  0.3700 	 1.5650 	 10.0704 	 9.0039 	 1.5307 	 58.2551 	 1.8958 	 56.2349 	 8.3860 	 2.0202 	 2.7300
  0.3700 	 1.5700 	 10.0734 	 9.0026 	 1.5273 	 57.8663 	 1.8944 	 56.3132 	 6.4235 	 1.5531 	 2.7300
  0.3700 	 1.3850 	 9.9458 	 9.0769 	 1.6752 	 60.4554 	 1.9625 	 53.0831 	 35.5179 	 7.3723 	 2.7400
  0.3700 	 1.3900 	 9.9495 	 9.0752 	 1.6709 	 60.4713 	 1.9605 	 53.1770 	 34.9847 	 7.2943 	 2.7400
  0.3700 	 1.3950 	 9.9533 	 9.0734 	 1.6665 	 60.4849 	 1.9585 	 53.2704 	 34.4473 	 7.2145 	 2.7400
  0.3700 	 1.4000 	 9.9570 	 9.0717 	 1.6622 	 60.4960 	 1.9565 	 53.3634 	 33.9055 	 7.1326 	 2.7400
  0.3700 	 1.4050 	 9.9608 	 9.0700 	 1.6580 	 60.5046 	 1.9545 	 53.4558 	 33.3590 	 7.0487 	 2.7400
  0.3700 	 1.4100 	 9.9644 	 9.0684 	 1.6537 	 60.5105 	 1.9525 	 53.5478 	 32.8075 	 6.9627 	 2.7400
  0.3700 	 1.4150 	 9.9681 	 9.0667 	 1.6495 	 60.5138 	 1.9506 	 53.6393 	 32.2508 	 6.8745 	 2.7400
  0.3700 	 1.4200 	 9.9717 	 9.0650 	 1.6454 	 60.5144 	 1.9487 	 53.7304 	 31.6885 	 6.7840 	 2.7400
  0.3700 	 1.4250 	 9.9753 	 9.0634 	 1.6412 	 60.5122 	 1.9468 	 53.8210 	 31.1202 	 6.6912 	 2.7400
  0.3700 	 1.4300 	 9.9789 	 9.0618 	 1.6371 	 60.5070 	 1.9449 	 53.9111 	 30.5457 	 6.5959 	 2.7400
  0.3700 	 1.4350 	 9.9825 	 9.0601 	 1.6330 	 60.4988 	 1.9430 	 54.0008 	 29.9644 	 6.4980 	 2.7400
  0.3700 	 1.4400 	 9.9860 	 9.0585 	 1.6289 	 60.4875 	 1.9412 	 54.0900 	 29.3760 	 6.3975 	 2.7400
  0.3700 	 1.4450 	 9.9895 	 9.0569 	 1.6248 	 60.4729 	 1.9393 	 54.1788 	 28.7799 	 6.2941 	 2.7400
  0.3700 	 1.4500 	 9.9930 	 9.0554 	 1.6208 	 60.4549 	 1.9375 	 54.2671 	 28.1757 	 6.1878 	 2.7400
  0.3700 	 1.4550 	 9.9965 	 9.0538 	 1.6168 	 60.4335 	 1.9357 	 54.3550 	 27.5627 	 6.0785 	 2.7400
  0.3700 	 1.4600 	 9.9999 	 9.0522 	 1.6128 	 60.4083 	 1.9340 	 54.4424 	 26.9403 	 5.9659 	 2.7400
  0.3700 	 1.4650 	 10.0033 	 9.0507 	 1.6089 	 60.3793 	 1.9322 	 54.5294 	 26.3078 	 5.8498 	 2.7400
  0.3700 	 1.4700 	 10.0067 	 9.0491 	 1.6050 	 60.3462 	 1.9304 	 54.6160 	 25.6643 	 5.7302 	 2.7400
  0.3700 	 1.4750 	 10.0101 	 9.0476 	 1.6011 	 60.3088 	 1.9287 	 54.7021 	 25.0091 	 5.6067 	 2.7400
  0.3700 	 1.4800 	 10.0134 	 9.0461 	 1.5972 	 60.2668 	 1.9270 	 54.7878 	 24.3411 	 5.4790 	 2.7400
  0.3700 	 1.4850 	 10.0167 	 9.0446 	 1.5933 	 60.2201 	 1.9253 	 54.8731 	 23.6591 	 5.3470 	 2.7400
  0.3700 	 1.4900 	 10.0200 	 9.0431 	 1.5895 	 60.1682 	 1.9236 	 54.9579 	 22.9619 	 5.2103 	 2.7400
  0.3700 	 1.4950 	 10.0233 	 9.0416 	 1.5857 	 60.1108 	 1.9220 	 55.0424 	 22.2480 	 5.0684 	 2.7400
  0.3700 	 1.5000 	 10.0266 	 9.0402 	 1.5819 	 60.0474 	 1.9203 	 55.1264 	 21.5157 	 4.9210 	 2.7400
  0.3700 	 1.5050 	 10.0298 	 9.0387 	 1.5782 	 59.9775 	 1.9187 	 55.2100 	 20.7629 	 4.7676 	 2.7400
  0.3700 	 1.5100 	 10.0330 	 9.0372 	 1.5744 	 59.9006 	 1.9170 	 55.2931 	 19.9873 	 4.6075 	 2.7400
  0.3700 	 1.5150 	 10.0362 	 9.0358 	 1.5707 	 59.8159 	 1.9154 	 55.3759 	 19.1862 	 4.4400 	 2.7400
  0.3700 	 1.5200 	 10.0394 	 9.0344 	 1.5670 	 59.7227 	 1.9138 	 55.4583 	 18.3560 	 4.2644 	 2.7400
  0.3700 	 1.5250 	 10.0425 	 9.0330 	 1.5633 	 59.6197 	 1.9123 	 55.5402 	 17.4925 	 4.0795 	 2.7400
  0.3700 	 1.5300 	 10.0457 	 9.0315 	 1.5597 	 59.5058 	 1.9107 	 55.6218 	 16.5906 	 3.8840 	 2.7400
  0.3700 	 1.5350 	 10.0488 	 9.0301 	 1.5561 	 59.3792 	 1.9091 	 55.7030 	 15.6435 	 3.6762 	 2.7400
  0.3700 	 1.5400 	 10.0519 	 9.0288 	 1.5524 	 59.2377 	 1.9076 	 55.7837 	 14.6424 	 3.4540 	 2.7400
  0.3700 	 1.5450 	 10.0549 	 9.0274 	 1.5489 	 59.0784 	 1.9061 	 55.8641 	 13.5752 	 3.2144 	 2.7400
  0.3700 	 1.5500 	 10.0580 	 9.0260 	 1.5453 	 58.8971 	 1.9046 	 55.9441 	 12.4249 	 2.9530 	 2.7400
  0.3700 	 1.5550 	 10.0610 	 9.0246 	 1.5417 	 58.6873 	 1.9031 	 56.0236 	 11.1657 	 2.6637 	 2.7400
  0.3700 	 1.5600 	 10.0640 	 9.0233 	 1.5382 	 58.4387 	 1.9016 	 56.1028 	 9.7555 	 2.3359 	 2.7400
  0.3700 	 1.5650 	 10.0670 	 9.0219 	 1.5347 	 58.1321 	 1.9001 	 56.1816 	 8.1157 	 1.9504 	 2.7400
  0.3700 	 1.5700 	 10.0700 	 9.0206 	 1.5312 	 57.7225 	 1.8987 	 56.2601 	 6.0627 	 1.4624 	 2.7400
  0.3700 	 1.3850 	 9.9419 	 9.0952 	 1.6796 	 60.3733 	 1.9671 	 53.0273 	 35.4800 	 7.3460 	 2.7500
  0.3700 	 1.3900 	 9.9457 	 9.0935 	 1.6752 	 60.3892 	 1.9651 	 53.1213 	 34.9455 	 7.2679 	 2.7500
  0.3700 	 1.3950 	 9.9495 	 9.0918 	 1.6709 	 60.4027 	 1.9631 	 53.2148 	 34.4067 	 7.1880 	 2.7500
  0.3700 	 1.4000 	 9.9532 	 9.0900 	 1.6666 	 60.4138 	 1.9610 	 53.3078 	 33.8634 	 7.1060 	 2.7500
  0.3700 	 1.4050 	 9.9570 	 9.0883 	 1.6623 	 60.4223 	 1.9591 	 53.4003 	 33.3154 	 7.0220 	 2.7500
  0.3700 	 1.4100 	 9.9607 	 9.0866 	 1.6581 	 60.4282 	 1.9571 	 53.4924 	 32.7624 	 6.9359 	 2.7500
  0.3700 	 1.4150 	 9.9643 	 9.0850 	 1.6539 	 60.4315 	 1.9551 	 53.5840 	 32.2041 	 6.8475 	 2.7500
  0.3700 	 1.4200 	 9.9680 	 9.0833 	 1.6497 	 60.4320 	 1.9532 	 53.6751 	 31.6401 	 6.7569 	 2.7500
  0.3700 	 1.4250 	 9.9716 	 9.0817 	 1.6455 	 60.4297 	 1.9513 	 53.7658 	 31.0702 	 6.6639 	 2.7500
  0.3700 	 1.4300 	 9.9752 	 9.0800 	 1.6414 	 60.4244 	 1.9494 	 53.8560 	 30.4938 	 6.5684 	 2.7500
  0.3700 	 1.4350 	 9.9788 	 9.0784 	 1.6372 	 60.4161 	 1.9475 	 53.9457 	 29.9107 	 6.4704 	 2.7500
  0.3700 	 1.4400 	 9.9823 	 9.0768 	 1.6332 	 60.4046 	 1.9457 	 54.0350 	 29.3203 	 6.3696 	 2.7500
  0.3700 	 1.4450 	 9.9858 	 9.0752 	 1.6291 	 60.3899 	 1.9438 	 54.1239 	 28.7222 	 6.2661 	 2.7500
  0.3700 	 1.4500 	 9.9893 	 9.0736 	 1.6251 	 60.3718 	 1.9420 	 54.2123 	 28.1158 	 6.1595 	 2.7500
  0.3700 	 1.4550 	 9.9928 	 9.0720 	 1.6211 	 60.3501 	 1.9402 	 54.3002 	 27.5006 	 6.0499 	 2.7500
  0.3700 	 1.4600 	 9.9963 	 9.0704 	 1.6171 	 60.3248 	 1.9384 	 54.3877 	 26.8758 	 5.9370 	 2.7500
  0.3700 	 1.4650 	 9.9997 	 9.0689 	 1.6131 	 60.2955 	 1.9367 	 54.4748 	 26.2408 	 5.8207 	 2.7500
  0.3700 	 1.4700 	 10.0031 	 9.0673 	 1.6092 	 60.2621 	 1.9349 	 54.5614 	 25.5948 	 5.7007 	 2.7500
  0.3700 	 1.4750 	 10.0065 	 9.0658 	 1.6053 	 60.2245 	 1.9332 	 54.6476 	 24.9367 	 5.5768 	 2.7500
  0.3700 	 1.4800 	 10.0098 	 9.0643 	 1.6014 	 60.1822 	 1.9314 	 54.7334 	 24.2657 	 5.4488 	 2.7500
  0.3700 	 1.4850 	 10.0132 	 9.0627 	 1.5975 	 60.1351 	 1.9297 	 54.8188 	 23.5805 	 5.3163 	 2.7500
  0.3700 	 1.4900 	 10.0165 	 9.0612 	 1.5937 	 60.0827 	 1.9280 	 54.9037 	 22.8799 	 5.1790 	 2.7500
  0.3700 	 1.4950 	 10.0198 	 9.0598 	 1.5898 	 60.0248 	 1.9264 	 54.9882 	 22.1623 	 5.0366 	 2.7500
  0.3700 	 1.5000 	 10.0230 	 9.0583 	 1.5860 	 59.9609 	 1.9247 	 55.0723 	 21.4259 	 4.8886 	 2.7500
  0.3700 	 1.5050 	 10.0263 	 9.0568 	 1.5823 	 59.8904 	 1.9231 	 55.1560 	 20.6687 	 4.7344 	 2.7500
  0.3700 	 1.5100 	 10.0295 	 9.0553 	 1.5785 	 59.8128 	 1.9214 	 55.2392 	 19.8883 	 4.5736 	 2.7500
  0.3700 	 1.5150 	 10.0327 	 9.0539 	 1.5748 	 59.7273 	 1.9198 	 55.3221 	 19.0817 	 4.4052 	 2.7500
  0.3700 	 1.5200 	 10.0359 	 9.0525 	 1.5711 	 59.6330 	 1.9182 	 55.4045 	 18.2455 	 4.2285 	 2.7500
  0.3700 	 1.5250 	 10.0390 	 9.0510 	 1.5674 	 59.5289 	 1.9166 	 55.4865 	 17.3752 	 4.0424 	 2.7500
  0.3700 	 1.5300 	 10.0422 	 9.0496 	 1.5637 	 59.4136 	 1.9150 	 55.5682 	 16.4655 	 3.8454 	 2.7500
  0.3700 	 1.5350 	 10.0453 	 9.0482 	 1.5601 	 59.2853 	 1.9135 	 55.6494 	 15.5093 	 3.6359 	 2.7500
  0.3700 	 1.5400 	 10.0484 	 9.0468 	 1.5565 	 59.1418 	 1.9119 	 55.7302 	 14.4973 	 3.4116 	 2.7500
  0.3700 	 1.5450 	 10.0515 	 9.0454 	 1.5529 	 58.9800 	 1.9104 	 55.8107 	 13.4169 	 3.1693 	 2.7500
  0.3700 	 1.5500 	 10.0545 	 9.0440 	 1.5493 	 58.7952 	 1.9089 	 55.8907 	 12.2499 	 2.9045 	 2.7500
  0.3700 	 1.5550 	 10.0576 	 9.0427 	 1.5458 	 58.5808 	 1.9074 	 55.9704 	 10.9687 	 2.6104 	 2.7500
  0.3700 	 1.5600 	 10.0606 	 9.0413 	 1.5422 	 58.3254 	 1.9059 	 56.0497 	 9.5269 	 2.2757 	 2.7500
  0.3700 	 1.5650 	 10.0636 	 9.0400 	 1.5387 	 58.0074 	 1.9044 	 56.1286 	 7.8367 	 1.8789 	 2.7500
  0.3700 	 1.5700 	 10.0666 	 9.0386 	 1.5352 	 57.5739 	 1.9030 	 56.2071 	 5.6799 	 1.3668 	 2.7500
  0.3700 	 1.3800 	 9.9342 	 9.1153 	 1.6884 	 60.2732 	 1.9738 	 52.8771 	 35.9740 	 7.3960 	 2.7600
  0.3700 	 1.3850 	 9.9381 	 9.1136 	 1.6840 	 60.2914 	 1.9717 	 52.9716 	 35.4422 	 7.3198 	 2.7600
  0.3700 	 1.3900 	 9.9419 	 9.1118 	 1.6796 	 60.3074 	 1.9697 	 53.0657 	 34.9063 	 7.2417 	 2.7600
  0.3700 	 1.3950 	 9.9457 	 9.1101 	 1.6753 	 60.3209 	 1.9676 	 53.1592 	 34.3661 	 7.1616 	 2.7600
  0.3700 	 1.4000 	 9.9494 	 9.1083 	 1.6710 	 60.3319 	 1.9656 	 53.2523 	 33.8214 	 7.0796 	 2.7600
  0.3700 	 1.4050 	 9.9532 	 9.1066 	 1.6667 	 60.3404 	 1.9636 	 53.3449 	 33.2719 	 6.9954 	 2.7600
  0.3700 	 1.4100 	 9.9569 	 9.1049 	 1.6624 	 60.3463 	 1.9617 	 53.4371 	 32.7174 	 6.9092 	 2.7600
  0.3700 	 1.4150 	 9.9606 	 9.1032 	 1.6582 	 60.3494 	 1.9597 	 53.5287 	 32.1574 	 6.8207 	 2.7600
  0.3700 	 1.4200 	 9.9642 	 9.1016 	 1.6540 	 60.3499 	 1.9578 	 53.6199 	 31.5918 	 6.7299 	 2.7600
  0.3700 	 1.4250 	 9.9679 	 9.0999 	 1.6498 	 60.3474 	 1.9558 	 53.7107 	 31.0201 	 6.6368 	 2.7600
  0.3700 	 1.4300 	 9.9715 	 9.0982 	 1.6457 	 60.3421 	 1.9539 	 53.8010 	 30.4420 	 6.5411 	 2.7600
  0.3700 	 1.4350 	 9.9751 	 9.0966 	 1.6415 	 60.3337 	 1.9521 	 53.8908 	 29.8570 	 6.4429 	 2.7600
  0.3700 	 1.4400 	 9.9786 	 9.0950 	 1.6374 	 60.3221 	 1.9502 	 53.9802 	 29.2647 	 6.3419 	 2.7600
  0.3700 	 1.4450 	 9.9822 	 9.0934 	 1.6334 	 60.3072 	 1.9483 	 54.0691 	 28.6645 	 6.2381 	 2.7600
  0.3700 	 1.4500 	 9.9857 	 9.0918 	 1.6293 	 60.2889 	 1.9465 	 54.1576 	 28.0560 	 6.1314 	 2.7600
  0.3700 	 1.4550 	 9.9891 	 9.0902 	 1.6253 	 60.2671 	 1.9447 	 54.2456 	 27.4385 	 6.0215 	 2.7600
  0.3700 	 1.4600 	 9.9926 	 9.0886 	 1.6213 	 60.2415 	 1.9429 	 54.3332 	 26.8114 	 5.9083 	 2.7600
  0.3700 	 1.4650 	 9.9960 	 9.0870 	 1.6173 	 60.2120 	 1.9411 	 54.4203 	 26.1738 	 5.7917 	 2.7600
  0.3700 	 1.4700 	 9.9995 	 9.0855 	 1.6134 	 60.1784 	 1.9393 	 54.5071 	 25.5251 	 5.6713 	 2.7600
  0.3700 	 1.4750 	 10.0029 	 9.0839 	 1.6094 	 60.1404 	 1.9376 	 54.5933 	 24.8643 	 5.5471 	 2.7600
  0.3700 	 1.4800 	 10.0062 	 9.0824 	 1.6055 	 60.0978 	 1.9359 	 54.6792 	 24.1902 	 5.4186 	 2.7600
  0.3700 	 1.4850 	 10.0096 	 9.0809 	 1.6017 	 60.0503 	 1.9342 	 54.7646 	 23.5018 	 5.2857 	 2.7600
  0.3700 	 1.4900 	 10.0129 	 9.0794 	 1.5978 	 59.9976 	 1.9325 	 54.8496 	 22.7977 	 5.1479 	 2.7600
  0.3700 	 1.4950 	 10.0162 	 9.0779 	 1.5940 	 59.9392 	 1.9308 	 54.9342 	 22.0763 	 5.0050 	 2.7600
  0.3700 	 1.5000 	 10.0195 	 9.0764 	 1.5902 	 59.8747 	 1.9291 	 55.0184 	 21.3359 	 4.8563 	 2.7600
  0.3700 	 1.5050 	 10.0227 	 9.0749 	 1.5864 	 59.8035 	 1.9274 	 55.1021 	 20.5742 	 4.7014 	 2.7600
  0.3700 	 1.5100 	 10.0260 	 9.0734 	 1.5826 	 59.7252 	 1.9258 	 55.1854 	 19.7889 	 4.5397 	 2.7600
  0.3700 	 1.5150 	 10.0292 	 9.0720 	 1.5789 	 59.6388 	 1.9242 	 55.2684 	 18.9769 	 4.3705 	 2.7600
  0.3700 	 1.5200 	 10.0324 	 9.0705 	 1.5752 	 59.5436 	 1.9226 	 55.3509 	 18.1345 	 4.1927 	 2.7600
  0.3700 	 1.5250 	 10.0355 	 9.0691 	 1.5715 	 59.4383 	 1.9210 	 55.4330 	 17.2573 	 4.0053 	 2.7600
  0.3700 	 1.5300 	 10.0387 	 9.0677 	 1.5678 	 59.3216 	 1.9194 	 55.5147 	 16.3396 	 3.8069 	 2.7600
  0.3700 	 1.5350 	 10.0418 	 9.0662 	 1.5642 	 59.1916 	 1.9178 	 55.5960 	 15.3741 	 3.5956 	 2.7600
  0.3700 	 1.5400 	 10.0449 	 9.0648 	 1.5605 	 59.0460 	 1.9163 	 55.6769 	 14.3511 	 3.3691 	 2.7600
  0.3700 	 1.5450 	 10.0480 	 9.0634 	 1.5569 	 58.8815 	 1.9147 	 55.7574 	 13.2571 	 3.1240 	 2.7600
  0.3700 	 1.5500 	 10.0511 	 9.0621 	 1.5533 	 58.6932 	 1.9132 	 55.8376 	 12.0728 	 2.8557 	 2.7600
  0.3700 	 1.5550 	 10.0542 	 9.0607 	 1.5498 	 58.4739 	 1.9117 	 55.9173 	 10.7683 	 2.5566 	 2.7600
  0.3700 	 1.5600 	 10.0572 	 9.0593 	 1.5462 	 58.2113 	 1.9102 	 55.9966 	 9.2932 	 2.2146 	 2.7600
  0.3700 	 1.5650 	 10.0602 	 9.0579 	 1.5427 	 57.8810 	 1.9087 	 56.0756 	 7.5479 	 1.8054 	 2.7600
  0.3700 	 1.5700 	 10.0632 	 9.0566 	 1.5392 	 57.4194 	 1.9073 	 56.1542 	 5.2702 	 1.2652 	 2.7600
  0.3700 	 1.3800 	 9.9303 	 9.1336 	 1.6928 	 60.1916 	 1.9784 	 52.8215 	 35.9375 	 7.3701 	 2.7700
  0.3700 	 1.3850 	 9.9342 	 9.1319 	 1.6884 	 60.2099 	 1.9763 	 52.9161 	 35.4043 	 7.2938 	 2.7700
  0.3700 	 1.3900 	 9.9380 	 9.1301 	 1.6840 	 60.2258 	 1.9743 	 53.0102 	 34.8670 	 7.2156 	 2.7700
  0.3700 	 1.3950 	 9.9419 	 9.1283 	 1.6797 	 60.2393 	 1.9722 	 53.1039 	 34.3255 	 7.1354 	 2.7700
  0.3700 	 1.4000 	 9.9456 	 9.1266 	 1.6753 	 60.2503 	 1.9702 	 53.1970 	 33.7793 	 7.0533 	 2.7700
  0.3700 	 1.4050 	 9.9494 	 9.1249 	 1.6710 	 60.2587 	 1.9682 	 53.2897 	 33.2284 	 6.9690 	 2.7700
  0.3700 	 1.4100 	 9.9531 	 9.1232 	 1.6668 	 60.2646 	 1.9662 	 53.3819 	 32.6723 	 6.8826 	 2.7700
  0.3700 	 1.4150 	 9.9568 	 9.1215 	 1.6625 	 60.2677 	 1.9642 	 53.4737 	 32.1108 	 6.7940 	 2.7700
  0.3700 	 1.4200 	 9.9605 	 9.1198 	 1.6583 	 60.2680 	 1.9623 	 53.5650 	 31.5435 	 6.7031 	 2.7700
  0.3700 	 1.4250 	 9.9641 	 9.1181 	 1.6541 	 60.2655 	 1.9604 	 53.6558 	 30.9701 	 6.6098 	 2.7700
  0.3700 	 1.4300 	 9.9677 	 9.1165 	 1.6499 	 60.2601 	 1.9585 	 53.7461 	 30.3901 	 6.5139 	 2.7700
  0.3700 	 1.4350 	 9.9713 	 9.1148 	 1.6458 	 60.2515 	 1.9566 	 53.8360 	 29.8033 	 6.4155 	 2.7700
  0.3700 	 1.4400 	 9.9749 	 9.1132 	 1.6417 	 60.2398 	 1.9547 	 53.9255 	 29.2090 	 6.3144 	 2.7700
  0.3700 	 1.4450 	 9.9785 	 9.1115 	 1.6376 	 60.2248 	 1.9528 	 54.0145 	 28.6068 	 6.2104 	 2.7700
  0.3700 	 1.4500 	 9.9820 	 9.1099 	 1.6335 	 60.2064 	 1.9510 	 54.1030 	 27.9961 	 6.1034 	 2.7700
  0.3700 	 1.4550 	 9.9855 	 9.1083 	 1.6295 	 60.1844 	 1.9492 	 54.1911 	 27.3764 	 5.9932 	 2.7700
  0.3700 	 1.4600 	 9.9890 	 9.1067 	 1.6255 	 60.1586 	 1.9474 	 54.2788 	 26.7468 	 5.8798 	 2.7700
  0.3700 	 1.4650 	 9.9924 	 9.1052 	 1.6215 	 60.1288 	 1.9456 	 54.3660 	 26.1068 	 5.7628 	 2.7700
  0.3700 	 1.4700 	 9.9958 	 9.1036 	 1.6176 	 60.0949 	 1.9438 	 54.4528 	 25.4554 	 5.6421 	 2.7700
  0.3700 	 1.4750 	 9.9992 	 9.1021 	 1.6136 	 60.0567 	 1.9420 	 54.5392 	 24.7917 	 5.5175 	 2.7700
  0.3700 	 1.4800 	 10.0026 	 9.1005 	 1.6097 	 60.0137 	 1.9403 	 54.6251 	 24.1146 	 5.3886 	 2.7700
  0.3700 	 1.4850 	 10.0060 	 9.0990 	 1.6058 	 59.9658 	 1.9386 	 54.7106 	 23.4230 	 5.2552 	 2.7700
  0.3700 	 1.4900 	 10.0093 	 9.0975 	 1.6020 	 59.9126 	 1.9369 	 54.7957 	 22.7154 	 5.1170 	 2.7700
  0.3700 	 1.4950 	 10.0126 	 9.0960 	 1.5981 	 59.8537 	 1.9352 	 54.8803 	 21.9902 	 4.9734 	 2.7700
  0.3700 	 1.5000 	 10.0159 	 9.0945 	 1.5943 	 59.7887 	 1.9335 	 54.9646 	 21.2456 	 4.8241 	 2.7700
  0.3700 	 1.5050 	 10.0192 	 9.0930 	 1.5905 	 59.7169 	 1.9318 	 55.0484 	 20.4795 	 4.6685 	 2.7700
  0.3700 	 1.5100 	 10.0224 	 9.0915 	 1.5867 	 59.6378 	 1.9302 	 55.1318 	 19.6892 	 4.5060 	 2.7700
  0.3700 	 1.5150 	 10.0257 	 9.0900 	 1.5830 	 59.5506 	 1.9286 	 55.2148 	 18.8717 	 4.3358 	 2.7700
  0.3700 	 1.5200 	 10.0289 	 9.0886 	 1.5792 	 59.4543 	 1.9269 	 55.2974 	 18.0231 	 4.1570 	 2.7700
  0.3700 	 1.5250 	 10.0321 	 9.0871 	 1.5755 	 59.3479 	 1.9253 	 55.3796 	 17.1389 	 3.9683 	 2.7700
  0.3700 	 1.5300 	 10.0352 	 9.0857 	 1.5719 	 59.2297 	 1.9237 	 55.4614 	 16.2131 	 3.7684 	 2.7700
  0.3700 	 1.5350 	 10.0384 	 9.0843 	 1.5682 	 59.0980 	 1.9222 	 55.5427 	 15.2380 	 3.5553 	 2.7700
  0.3700 	 1.5400 	 10.0415 	 9.0828 	 1.5646 	 58.9503 	 1.9206 	 55.6237 	 14.2036 	 3.3265 	 2.7700
  0.3700 	 1.5450 	 10.0446 	 9.0814 	 1.5609 	 58.7830 	 1.9191 	 55.7043 	 13.0955 	 3.0786 	 2.7700
  0.3700 	 1.5500 	 10.0477 	 9.0800 	 1.5573 	 58.5910 	 1.9175 	 55.7845 	 11.8933 	 2.8065 	 2.7700
  0.3700 	 1.5550 	 10.0507 	 9.0787 	 1.5538 	 58.3666 	 1.9160 	 55.8643 	 10.5646 	 2.5023 	 2.7700
  0.3700 	 1.5600 	 10.0538 	 9.0773 	 1.5502 	 58.0962 	 1.9145 	 55.9437 	 9.0540 	 2.1525 	 2.7700
  0.3700 	 1.5650 	 10.0568 	 9.0759 	 1.5467 	 57.7524 	 1.9130 	 56.0228 	 7.2482 	 1.7296 	 2.7700
  0.3700 	 1.3800 	 9.9265 	 9.1519 	 1.6972 	 60.1104 	 1.9830 	 52.7661 	 35.9009 	 7.3443 	 2.7800
  0.3700 	 1.3850 	 9.9304 	 9.1501 	 1.6928 	 60.1287 	 1.9809 	 52.8608 	 35.3664 	 7.2679 	 2.7800
  0.3700 	 1.3900 	 9.9342 	 9.1484 	 1.6884 	 60.1446 	 1.9789 	 52.9550 	 34.8278 	 7.1896 	 2.7800
  0.3700 	 1.3950 	 9.9380 	 9.1466 	 1.6840 	 60.1580 	 1.9768 	 53.0487 	 34.2849 	 7.1094 	 2.7800
  0.3700 	 1.4000 	 9.9418 	 9.1449 	 1.6797 	 60.1690 	 1.9748 	 53.1419 	 33.7373 	 7.0271 	 2.7800
  0.3700 	 1.4050 	 9.9456 	 9.1431 	 1.6754 	 60.1774 	 1.9728 	 53.2347 	 33.1848 	 6.9427 	 2.7800
  0.3700 	 1.4100 	 9.9493 	 9.1414 	 1.6711 	 60.1832 	 1.9708 	 53.3269 	 32.6272 	 6.8562 	 2.7800
  0.3700 	 1.4150 	 9.9530 	 9.1397 	 1.6668 	 60.1862 	 1.9688 	 53.4188 	 32.0641 	 6.7675 	 2.7800
  0.3700 	 1.4200 	 9.9567 	 9.1380 	 1.6626 	 60.1865 	 1.9668 	 53.5101 	 31.4951 	 6.6764 	 2.7800
  0.3700 	 1.4250 	 9.9604 	 9.1363 	 1.6584 	 60.1839 	 1.9649 	 53.6010 	 30.9200 	 6.5829 	 2.7800
  0.3700 	 1.4300 	 9.9640 	 9.1346 	 1.6542 	 60.1783 	 1.9630 	 53.6914 	 30.3383 	 6.4869 	 2.7800
  0.3700 	 1.4350 	 9.9676 	 9.1330 	 1.6501 	 60.1697 	 1.9611 	 53.7814 	 29.7495 	 6.3883 	 2.7800
  0.3700 	 1.4400 	 9.9712 	 9.1313 	 1.6460 	 60.1579 	 1.9592 	 53.8709 	 29.1533 	 6.2869 	 2.7800
  0.3700 	 1.4450 	 9.9748 	 9.1297 	 1.6419 	 60.1427 	 1.9573 	 53.9600 	 28.5490 	 6.1827 	 2.7800
  0.3700 	 1.4500 	 9.9783 	 9.1281 	 1.6378 	 60.1241 	 1.9555 	 54.0486 	 27.9362 	 6.0755 	 2.7800
  0.3700 	 1.4550 	 9.9818 	 9.1265 	 1.6337 	 60.1019 	 1.9536 	 54.1368 	 27.3142 	 5.9651 	 2.7800
  0.3700 	 1.4600 	 9.9853 	 9.1249 	 1.6297 	 60.0759 	 1.9518 	 54.2245 	 26.6823 	 5.8514 	 2.7800
  0.3700 	 1.4650 	 9.9888 	 9.1233 	 1.6257 	 60.0459 	 1.9500 	 54.3118 	 26.0397 	 5.7341 	 2.7800
  0.3700 	 1.4700 	 9.9922 	 9.1217 	 1.6217 	 60.0118 	 1.9482 	 54.3987 	 25.3856 	 5.6131 	 2.7800
  0.3700 	 1.4750 	 9.9956 	 9.1202 	 1.6178 	 59.9732 	 1.9465 	 54.4851 	 24.7191 	 5.4880 	 2.7800
  0.3700 	 1.4800 	 9.9990 	 9.1186 	 1.6139 	 59.9299 	 1.9447 	 54.5711 	 24.0389 	 5.3588 	 2.7800
  0.3700 	 1.4850 	 10.0024 	 9.1171 	 1.6100 	 59.8816 	 1.9430 	 54.6567 	 23.3440 	 5.2249 	 2.7800
  0.3700 	 1.4900 	 10.0057 	 9.1155 	 1.6061 	 59.8280 	 1.9413 	 54.7419 	 22.6329 	 5.0861 	 2.7800
  0.3700 	 1.4950 	 10.0091 	 9.1140 	 1.6022 	 59.7686 	 1.9396 	 54.8266 	 21.9039 	 4.9420 	 2.7800
  0.3700 	 1.5000 	 10.0124 	 9.1125 	 1.5984 	 59.7030 	 1.9379 	 54.9109 	 21.1552 	 4.7921 	 2.7800
  0.3700 	 1.5050 	 10.0156 	 9.1110 	 1.5946 	 59.6306 	 1.9362 	 54.9948 	 20.3845 	 4.6358 	 2.7800
  0.3700 	 1.5100 	 10.0189 	 9.1095 	 1.5908 	 59.5507 	 1.9346 	 55.0783 	 19.5892 	 4.4724 	 2.7800
  0.3700 	 1.5150 	 10.0221 	 9.1081 	 1.5871 	 59.4626 	 1.9329 	 55.1614 	 18.7660 	 4.3013 	 2.7800
  0.3700 	 1.5200 	 10.0254 	 9.1066 	 1.5833 	 59.3653 	 1.9313 	 55.2440 	 17.9112 	 4.1213 	 2.7800
  0.3700 	 1.5250 	 10.0286 	 9.1051 	 1.5796 	 59.2576 	 1.9297 	 55.3263 	 17.0198 	 3.9313 	 2.7800
  0.3700 	 1.5300 	 10.0317 	 9.1037 	 1.5759 	 59.1380 	 1.9281 	 55.4081 	 16.0857 	 3.7299 	 2.7800
  0.3700 	 1.5350 	 10.0349 	 9.1023 	 1.5722 	 59.0046 	 1.9265 	 55.4896 	 15.1010 	 3.5150 	 2.7800
  0.3700 	 1.5400 	 10.0380 	 9.1008 	 1.5686 	 58.8546 	 1.9249 	 55.5707 	 14.0548 	 3.2839 	 2.7800
  0.3700 	 1.5450 	 10.0411 	 9.0994 	 1.5650 	 58.6844 	 1.9234 	 55.6513 	 12.9323 	 3.0331 	 2.7800
  0.3700 	 1.5500 	 10.0442 	 9.0980 	 1.5614 	 58.4887 	 1.9218 	 55.7316 	 11.7114 	 2.7571 	 2.7800
  0.3700 	 1.5550 	 10.0473 	 9.0966 	 1.5578 	 58.2589 	 1.9203 	 55.8115 	 10.3573 	 2.4474 	 2.7800
  0.3700 	 1.5600 	 10.0504 	 9.0952 	 1.5542 	 57.9802 	 1.9188 	 55.8910 	 8.8087 	 2.0892 	 2.7800
  0.3700 	 1.5650 	 10.0534 	 9.0939 	 1.5507 	 57.6213 	 1.9173 	 55.9701 	 6.9362 	 1.6512 	 2.7800
  0.3700 	 1.3800 	 9.9226 	 9.1702 	 1.7017 	 60.0295 	 1.9876 	 52.7108 	 35.8644 	 7.3187 	 2.7900
  0.3700 	 1.3850 	 9.9265 	 9.1684 	 1.6972 	 60.0478 	 1.9855 	 52.8055 	 35.3286 	 7.2422 	 2.7900
  0.3700 	 1.3900 	 9.9304 	 9.1666 	 1.6928 	 60.0636 	 1.9835 	 52.8998 	 34.7886 	 7.1638 	 2.7900
  0.3700 	 1.3950 	 9.9342 	 9.1648 	 1.6884 	 60.0771 	 1.9814 	 52.9936 	 34.2443 	 7.0835 	 2.7900
  0.3700 	 1.4000 	 9.9380 	 9.1631 	 1.6841 	 60.0880 	 1.9793 	 53.0869 	 33.6953 	 7.0011 	 2.7900
  0.3700 	 1.4050 	 9.9418 	 9.1613 	 1.6797 	 60.0963 	 1.9773 	 53.1797 	 33.1413 	 6.9166 	 2.7900
  0.3700 	 1.4100 	 9.9455 	 9.1596 	 1.6754 	 60.1020 	 1.9753 	 53.2721 	 32.5821 	 6.8300 	 2.7900
  0.3700 	 1.4150 	 9.9493 	 9.1579 	 1.6712 	 60.1050 	 1.9733 	 53.3640 	 32.0174 	 6.7411 	 2.7900
  0.3700 	 1.4200 	 9.9530 	 9.1562 	 1.6669 	 60.1052 	 1.9714 	 53.4554 	 31.4468 	 6.6499 	 2.7900
  0.3700 	 1.4250 	 9.9566 	 9.1545 	 1.6627 	 60.1026 	 1.9694 	 53.5464 	 30.8699 	 6.5562 	 2.7900
  0.3700 	 1.4300 	 9.9603 	 9.1528 	 1.6585 	 60.0969 	 1.9675 	 53.6369 	 30.2864 	 6.4600 	 2.7900
  0.3700 	 1.4350 	 9.9639 	 9.1511 	 1.6543 	 60.0881 	 1.9656 	 53.7269 	 29.6958 	 6.3612 	 2.7900
  0.3700 	 1.4400 	 9.9675 	 9.1495 	 1.6502 	 60.0762 	 1.9637 	 53.8165 	 29.0976 	 6.2597 	 2.7900
  0.3700 	 1.4450 	 9.9711 	 9.1478 	 1.6461 	 60.0609 	 1.9618 	 53.9057 	 28.4913 	 6.1552 	 2.7900
  0.3700 	 1.4500 	 9.9746 	 9.1462 	 1.6420 	 60.0421 	 1.9599 	 53.9943 	 27.8763 	 6.0478 	 2.7900
  0.3700 	 1.4550 	 9.9782 	 9.1446 	 1.6380 	 60.0197 	 1.9581 	 54.0826 	 27.2520 	 5.9371 	 2.7900
  0.3700 	 1.4600 	 9.9817 	 9.1430 	 1.6339 	 59.9935 	 1.9563 	 54.1704 	 26.6177 	 5.8231 	 2.7900
  0.3700 	 1.4650 	 9.9851 	 9.1414 	 1.6299 	 59.9633 	 1.9545 	 54.2578 	 25.9726 	 5.7055 	 2.7900
  0.3700 	 1.4700 	 9.9886 	 9.1398 	 1.6259 	 59.9289 	 1.9527 	 54.3447 	 25.3158 	 5.5841 	 2.7900
  0.3700 	 1.4750 	 9.9920 	 9.1382 	 1.6220 	 59.8900 	 1.9509 	 54.4312 	 24.6463 	 5.4587 	 2.7900
  0.3700 	 1.4800 	 9.9954 	 9.1367 	 1.6180 	 59.8464 	 1.9491 	 54.5173 	 23.9632 	 5.3290 	 2.7900
  0.3700 	 1.4850 	 9.9988 	 9.1351 	 1.6141 	 59.7977 	 1.9474 	 54.6030 	 23.2649 	 5.1947 	 2.7900
  0.3700 	 1.4900 	 10.0022 	 9.1336 	 1.6102 	 59.7436 	 1.9457 	 54.6882 	 22.5503 	 5.0554 	 2.7900
  0.3700 	 1.4950 	 10.0055 	 9.1321 	 1.6064 	 59.6837 	 1.9440 	 54.7730 	 21.8174 	 4.9107 	 2.7900
  0.3700 	 1.5000 	 10.0088 	 9.1305 	 1.6025 	 59.6175 	 1.9423 	 54.8574 	 21.0645 	 4.7601 	 2.7900
  0.3700 	 1.5050 	 10.0121 	 9.1290 	 1.5987 	 59.5444 	 1.9406 	 54.9414 	 20.2892 	 4.6031 	 2.7900
  0.3700 	 1.5100 	 10.0154 	 9.1275 	 1.5949 	 59.4638 	 1.9389 	 55.0249 	 19.4888 	 4.4389 	 2.7900
  0.3700 	 1.5150 	 10.0186 	 9.1261 	 1.5911 	 59.3748 	 1.9373 	 55.1081 	 18.6600 	 4.2668 	 2.7900
  0.3700 	 1.5200 	 10.0219 	 9.1246 	 1.5874 	 59.2765 	 1.9357 	 55.1908 	 17.7988 	 4.0857 	 2.7900
  0.3700 	 1.5250 	 10.0251 	 9.1231 	 1.5837 	 59.1676 	 1.9340 	 55.2731 	 16.9001 	 3.8944 	 2.7900
  0.3700 	 1.5300 	 10.0283 	 9.1217 	 1.5800 	 59.0465 	 1.9324 	 55.3551 	 15.9576 	 3.6914 	 2.7900
  0.3700 	 1.5350 	 10.0314 	 9.1202 	 1.5763 	 58.9112 	 1.9308 	 55.4366 	 14.9629 	 3.4746 	 2.7900
  0.3700 	 1.5400 	 10.0346 	 9.1188 	 1.5726 	 58.7589 	 1.9293 	 55.5177 	 13.9048 	 3.2412 	 2.7900
  0.3700 	 1.5450 	 10.0377 	 9.1174 	 1.5690 	 58.5858 	 1.9277 	 55.5985 	 12.7673 	 2.9873 	 2.7900
  0.3700 	 1.5500 	 10.0408 	 9.1160 	 1.5654 	 58.3861 	 1.9262 	 55.6788 	 11.5271 	 2.7073 	 2.7900
  0.3700 	 1.5550 	 10.0439 	 9.1146 	 1.5618 	 58.1507 	 1.9246 	 55.7588 	 10.1462 	 2.3919 	 2.7900
  0.3700 	 1.5600 	 10.0469 	 9.1132 	 1.5582 	 57.8631 	 1.9231 	 55.8383 	 8.5569 	 2.0247 	 2.7900
  0.3700 	 1.5650 	 10.0500 	 9.1118 	 1.5546 	 57.4875 	 1.9216 	 55.9175 	 6.6102 	 1.5699 	 2.7900
