# d(e,e'p)n Central Kinematics Summary
# Beam Energy (Ei) = 11.000 GeV
# 4-Momentum Transfer (Q2) = 2.30 - 2.39 GeV (step: 0.01) 
# x-Bjorken (xbj) = 1.00 - 2.00 (step: 0.01) 
# Missing Momentum (Pr) = 0.35 - 0.37 GeV (step: 0.01) 
# Hadron Out-of-Plane Angle (phi): rotation axis is q-vector 
# thp = thq + thpq, phi = 180  (q-vector scatters at smaller  angles than proton scattering angle)# 
# # 
# Tensor Polarized Deuterium: d(e,e'p) kinematics :
# 
# Header Definitions: 
# Pr   : Central Missing Momentum [GeV/c] 
# xbj  : Bjorken x  
# kf   : e- final momentum [GeV/c] 
# th_e : e- scattering angle [deg] 
# Pf   : final proton momentum [GeV/c] 
# th_p : proton scattering angle [deg] 
# q    : 3-momentum transfer [GeV] 
# th_q : relative angle between q-vector and +z (lab)  [deg] 
# th_nq: relative angle between q-vector and recoil neutron [deg] 
# th_pq: relative angle between q-vector and knocked-out proton [deg] 
# Q2   : 4-Momentum Transfer [GeV^2]  
# 
#! Pr[f,0]/ 	  xbj[f,1]/ 	 kf[f,2]/ 	 th_e[f,3]/ 	 Pf[f,4]/ 	 th_p[f,5]/ 	 q[f,6]/ 	 th_q[f,7]/ 	 th_nq[f,8]/ 	 th_pq[f,9]/ 	 Q2[f,10]/
  0.3500 	 1.3850 	 10.1150 	 8.2448 	 1.4866 	 63.6341 	 1.7559 	 55.6997 	 35.8959 	 7.9345 	 2.3000
  0.3500 	 1.3900 	 10.1182 	 8.2435 	 1.4828 	 63.6442 	 1.7543 	 55.7898 	 35.3780 	 7.8545 	 2.3000
  0.3500 	 1.3950 	 10.1214 	 8.2422 	 1.4791 	 63.6520 	 1.7527 	 55.8794 	 34.8566 	 7.7726 	 2.3000
  0.3500 	 1.4000 	 10.1245 	 8.2409 	 1.4754 	 63.6573 	 1.7511 	 55.9685 	 34.3312 	 7.6888 	 2.3000
  0.3500 	 1.4050 	 10.1276 	 8.2397 	 1.4717 	 63.6601 	 1.7496 	 56.0572 	 33.8018 	 7.6029 	 2.3000
  0.3500 	 1.4100 	 10.1307 	 8.2384 	 1.4680 	 63.6605 	 1.7480 	 56.1454 	 33.2681 	 7.5151 	 2.3000
  0.3500 	 1.4150 	 10.1338 	 8.2372 	 1.4644 	 63.6582 	 1.7465 	 56.2331 	 32.7298 	 7.4250 	 2.3000
  0.3500 	 1.4200 	 10.1369 	 8.2359 	 1.4607 	 63.6532 	 1.7450 	 56.3204 	 32.1866 	 7.3328 	 2.3000
  0.3500 	 1.4250 	 10.1399 	 8.2347 	 1.4571 	 63.6455 	 1.7435 	 56.4072 	 31.6383 	 7.2384 	 2.3000
  0.3500 	 1.4300 	 10.1429 	 8.2335 	 1.4536 	 63.6350 	 1.7420 	 56.4935 	 31.0846 	 7.1415 	 2.3000
  0.3500 	 1.4350 	 10.1459 	 8.2323 	 1.4500 	 63.6216 	 1.7406 	 56.5794 	 30.5250 	 7.0422 	 2.3000
  0.3500 	 1.4400 	 10.1488 	 8.2311 	 1.4465 	 63.6051 	 1.7391 	 56.6648 	 29.9592 	 6.9403 	 2.3000
  0.3500 	 1.4450 	 10.1518 	 8.2299 	 1.4430 	 63.5856 	 1.7377 	 56.7498 	 29.3869 	 6.8358 	 2.3000
  0.3500 	 1.4500 	 10.1547 	 8.2287 	 1.4395 	 63.5628 	 1.7362 	 56.8343 	 28.8075 	 6.7285 	 2.3000
  0.3500 	 1.4550 	 10.1576 	 8.2275 	 1.4360 	 63.5367 	 1.7348 	 56.9184 	 28.2206 	 6.6183 	 2.3000
  0.3500 	 1.4600 	 10.1605 	 8.2263 	 1.4325 	 63.5070 	 1.7334 	 57.0020 	 27.6257 	 6.5050 	 2.3000
  0.3500 	 1.4650 	 10.1634 	 8.2252 	 1.4291 	 63.4738 	 1.7320 	 57.0852 	 27.0223 	 6.3885 	 2.3000
  0.3500 	 1.4700 	 10.1662 	 8.2240 	 1.4257 	 63.4367 	 1.7307 	 57.1680 	 26.4095 	 6.2687 	 2.3000
  0.3500 	 1.4750 	 10.1690 	 8.2229 	 1.4223 	 63.3956 	 1.7293 	 57.2503 	 25.7868 	 6.1452 	 2.3000
  0.3500 	 1.4800 	 10.1719 	 8.2217 	 1.4190 	 63.3502 	 1.7280 	 57.3322 	 25.1534 	 6.0180 	 2.3000
  0.3500 	 1.4850 	 10.1746 	 8.2206 	 1.4156 	 63.3005 	 1.7266 	 57.4137 	 24.5084 	 5.8867 	 2.3000
  0.3500 	 1.4900 	 10.1774 	 8.2195 	 1.4123 	 63.2460 	 1.7253 	 57.4948 	 23.8507 	 5.7512 	 2.3000
  0.3500 	 1.4950 	 10.1802 	 8.2184 	 1.4090 	 63.1865 	 1.7240 	 57.5754 	 23.1794 	 5.6110 	 2.3000
  0.3500 	 1.5000 	 10.1829 	 8.2173 	 1.4057 	 63.1216 	 1.7227 	 57.6556 	 22.4930 	 5.4660 	 2.3000
  0.3500 	 1.5050 	 10.1856 	 8.2162 	 1.4024 	 63.0510 	 1.7214 	 57.7355 	 21.7901 	 5.3155 	 2.3000
  0.3500 	 1.5100 	 10.1883 	 8.2151 	 1.3992 	 62.9741 	 1.7201 	 57.8148 	 21.0690 	 5.1593 	 2.3000
  0.3500 	 1.5150 	 10.1910 	 8.2140 	 1.3960 	 62.8905 	 1.7189 	 57.8938 	 20.3278 	 4.9967 	 2.3000
  0.3500 	 1.5200 	 10.1936 	 8.2129 	 1.3928 	 62.7996 	 1.7176 	 57.9724 	 19.5640 	 4.8271 	 2.3000
  0.3500 	 1.5250 	 10.1963 	 8.2118 	 1.3896 	 62.7005 	 1.7164 	 58.0506 	 18.7749 	 4.6499 	 2.3000
  0.3500 	 1.5300 	 10.1989 	 8.2108 	 1.3864 	 62.5923 	 1.7151 	 58.1284 	 17.9570 	 4.4640 	 2.3000
  0.3500 	 1.5350 	 10.2015 	 8.2097 	 1.3833 	 62.4740 	 1.7139 	 58.2058 	 17.1063 	 4.2683 	 2.3000
  0.3500 	 1.5400 	 10.2041 	 8.2087 	 1.3801 	 62.3442 	 1.7127 	 58.2828 	 16.2173 	 4.0614 	 2.3000
  0.3500 	 1.5450 	 10.2067 	 8.2077 	 1.3770 	 62.2010 	 1.7115 	 58.3594 	 15.2835 	 3.8417 	 2.3000
  0.3500 	 1.5500 	 10.2093 	 8.2066 	 1.3739 	 62.0421 	 1.7103 	 58.4356 	 14.2959 	 3.6066 	 2.3000
  0.3500 	 1.5550 	 10.2118 	 8.2056 	 1.3708 	 61.8644 	 1.7092 	 58.5114 	 13.2424 	 3.3530 	 2.3000
  0.3500 	 1.5600 	 10.2143 	 8.2046 	 1.3678 	 61.6631 	 1.7080 	 58.5868 	 12.1058 	 3.0763 	 2.3000
  0.3500 	 1.5650 	 10.2168 	 8.2036 	 1.3647 	 61.4315 	 1.7069 	 58.6619 	 10.8600 	 2.7696 	 2.3000
  0.3500 	 1.5700 	 10.2193 	 8.2026 	 1.3617 	 61.1582 	 1.7057 	 58.7366 	 9.4617 	 2.4217 	 2.3000
  0.3500 	 1.5750 	 10.2218 	 8.2016 	 1.3587 	 60.8219 	 1.7046 	 58.8109 	 7.8296 	 2.0111 	 2.3000
  0.3500 	 1.5800 	 10.2243 	 8.2006 	 1.3557 	 60.3717 	 1.7035 	 58.8848 	 5.7682 	 1.4869 	 2.3000
  0.3500 	 1.3850 	 10.1112 	 8.2643 	 1.4911 	 63.5378 	 1.7607 	 55.6364 	 35.8507 	 7.9015 	 2.3100
  0.3500 	 1.3900 	 10.1144 	 8.2630 	 1.4874 	 63.5479 	 1.7591 	 55.7266 	 35.3313 	 7.8213 	 2.3100
  0.3500 	 1.3950 	 10.1176 	 8.2617 	 1.4836 	 63.5556 	 1.7575 	 55.8163 	 34.8082 	 7.7393 	 2.3100
  0.3500 	 1.4000 	 10.1207 	 8.2604 	 1.4799 	 63.5609 	 1.7559 	 55.9055 	 34.2812 	 7.6553 	 2.3100
  0.3500 	 1.4050 	 10.1239 	 8.2592 	 1.4762 	 63.5637 	 1.7543 	 55.9943 	 33.7501 	 7.5694 	 2.3100
  0.3500 	 1.4100 	 10.1270 	 8.2579 	 1.4725 	 63.5639 	 1.7528 	 56.0826 	 33.2146 	 7.4813 	 2.3100
  0.3500 	 1.4150 	 10.1300 	 8.2566 	 1.4688 	 63.5615 	 1.7512 	 56.1704 	 32.6744 	 7.3911 	 2.3100
  0.3500 	 1.4200 	 10.1331 	 8.2554 	 1.4652 	 63.5565 	 1.7497 	 56.2578 	 32.1293 	 7.2987 	 2.3100
  0.3500 	 1.4250 	 10.1361 	 8.2541 	 1.4616 	 63.5487 	 1.7482 	 56.3447 	 31.5790 	 7.2040 	 2.3100
  0.3500 	 1.4300 	 10.1392 	 8.2529 	 1.4580 	 63.5381 	 1.7467 	 56.4311 	 31.0232 	 7.1070 	 2.3100
  0.3500 	 1.4350 	 10.1422 	 8.2517 	 1.4544 	 63.5245 	 1.7452 	 56.5171 	 30.4615 	 7.0074 	 2.3100
  0.3500 	 1.4400 	 10.1451 	 8.2505 	 1.4509 	 63.5079 	 1.7438 	 56.6026 	 29.8935 	 6.9053 	 2.3100
  0.3500 	 1.4450 	 10.1481 	 8.2493 	 1.4473 	 63.4882 	 1.7423 	 56.6877 	 29.3189 	 6.8005 	 2.3100
  0.3500 	 1.4500 	 10.1510 	 8.2481 	 1.4438 	 63.4652 	 1.7409 	 56.7723 	 28.7371 	 6.6929 	 2.3100
  0.3500 	 1.4550 	 10.1540 	 8.2469 	 1.4404 	 63.4388 	 1.7395 	 56.8565 	 28.1477 	 6.5824 	 2.3100
  0.3500 	 1.4600 	 10.1569 	 8.2457 	 1.4369 	 63.4090 	 1.7381 	 56.9402 	 27.5501 	 6.4687 	 2.3100
  0.3500 	 1.4650 	 10.1597 	 8.2445 	 1.4335 	 63.3754 	 1.7367 	 57.0235 	 26.9438 	 6.3519 	 2.3100
  0.3500 	 1.4700 	 10.1626 	 8.2434 	 1.4301 	 63.3380 	 1.7353 	 57.1064 	 26.3282 	 6.2316 	 2.3100
  0.3500 	 1.4750 	 10.1654 	 8.2422 	 1.4267 	 63.2966 	 1.7339 	 57.1888 	 25.7024 	 6.1077 	 2.3100
  0.3500 	 1.4800 	 10.1683 	 8.2411 	 1.4233 	 63.2509 	 1.7326 	 57.2708 	 25.0657 	 5.9800 	 2.3100
  0.3500 	 1.4850 	 10.1711 	 8.2399 	 1.4199 	 63.2007 	 1.7312 	 57.3524 	 24.4171 	 5.8483 	 2.3100
  0.3500 	 1.4900 	 10.1738 	 8.2388 	 1.4166 	 63.1457 	 1.7299 	 57.4335 	 23.7558 	 5.7121 	 2.3100
  0.3500 	 1.4950 	 10.1766 	 8.2377 	 1.4133 	 63.0856 	 1.7286 	 57.5143 	 23.0804 	 5.5713 	 2.3100
  0.3500 	 1.5000 	 10.1793 	 8.2366 	 1.4100 	 63.0202 	 1.7273 	 57.5946 	 22.3897 	 5.4256 	 2.3100
  0.3500 	 1.5050 	 10.1821 	 8.2355 	 1.4067 	 62.9488 	 1.7260 	 57.6745 	 21.6822 	 5.2743 	 2.3100
  0.3500 	 1.5100 	 10.1848 	 8.2344 	 1.4034 	 62.8712 	 1.7247 	 57.7540 	 20.9561 	 5.1172 	 2.3100
  0.3500 	 1.5150 	 10.1875 	 8.2333 	 1.4002 	 62.7867 	 1.7234 	 57.8331 	 20.2093 	 4.9537 	 2.3100
  0.3500 	 1.5200 	 10.1901 	 8.2322 	 1.3970 	 62.6948 	 1.7222 	 57.9118 	 19.4395 	 4.7830 	 2.3100
  0.3500 	 1.5250 	 10.1928 	 8.2311 	 1.3938 	 62.5945 	 1.7209 	 57.9900 	 18.6436 	 4.6044 	 2.3100
  0.3500 	 1.5300 	 10.1954 	 8.2301 	 1.3906 	 62.4850 	 1.7197 	 58.0679 	 17.8182 	 4.4171 	 2.3100
  0.3500 	 1.5350 	 10.1981 	 8.2290 	 1.3874 	 62.3651 	 1.7185 	 58.1454 	 16.9588 	 4.2197 	 2.3100
  0.3500 	 1.5400 	 10.2007 	 8.2279 	 1.3843 	 62.2334 	 1.7172 	 58.2225 	 16.0601 	 4.0109 	 2.3100
  0.3500 	 1.5450 	 10.2032 	 8.2269 	 1.3812 	 62.0879 	 1.7160 	 58.2992 	 15.1147 	 3.7887 	 2.3100
  0.3500 	 1.5500 	 10.2058 	 8.2259 	 1.3781 	 61.9262 	 1.7149 	 58.3755 	 14.1135 	 3.5507 	 2.3100
  0.3500 	 1.5550 	 10.2084 	 8.2248 	 1.3750 	 61.7448 	 1.7137 	 58.4514 	 13.0432 	 3.2934 	 2.3100
  0.3500 	 1.5600 	 10.2109 	 8.2238 	 1.3719 	 61.5388 	 1.7125 	 58.5270 	 11.8854 	 3.0119 	 2.3100
  0.3500 	 1.5650 	 10.2134 	 8.2228 	 1.3688 	 61.3008 	 1.7113 	 58.6021 	 10.6113 	 2.6987 	 2.3100
  0.3500 	 1.5700 	 10.2159 	 8.2218 	 1.3658 	 61.0180 	 1.7102 	 58.6769 	 9.1723 	 2.3411 	 2.3100
  0.3500 	 1.5750 	 10.2184 	 8.2208 	 1.3628 	 60.6657 	 1.7091 	 58.7513 	 7.4738 	 1.9144 	 2.3100
  0.3500 	 1.5800 	 10.2209 	 8.2198 	 1.3598 	 60.1801 	 1.7079 	 58.8253 	 5.2704 	 1.3548 	 2.3100
  0.3500 	 1.3850 	 10.1074 	 8.2838 	 1.4957 	 63.4419 	 1.7655 	 55.5733 	 35.8055 	 7.8687 	 2.3200
  0.3500 	 1.3900 	 10.1106 	 8.2825 	 1.4919 	 63.4520 	 1.7638 	 55.6636 	 35.2846 	 7.7884 	 2.3200
  0.3500 	 1.3950 	 10.1138 	 8.2812 	 1.4881 	 63.4596 	 1.7622 	 55.7534 	 34.7598 	 7.7062 	 2.3200
  0.3500 	 1.4000 	 10.1169 	 8.2799 	 1.4844 	 63.4649 	 1.7606 	 55.8427 	 34.2312 	 7.6221 	 2.3200
  0.3500 	 1.4050 	 10.1201 	 8.2786 	 1.4807 	 63.4676 	 1.7591 	 55.9316 	 33.6983 	 7.5360 	 2.3200
  0.3500 	 1.4100 	 10.1232 	 8.2773 	 1.4770 	 63.4678 	 1.7575 	 56.0200 	 33.1610 	 7.4478 	 2.3200
  0.3500 	 1.4150 	 10.1263 	 8.2760 	 1.4733 	 63.4653 	 1.7560 	 56.1079 	 32.6190 	 7.3574 	 2.3200
  0.3500 	 1.4200 	 10.1294 	 8.2748 	 1.4696 	 63.4602 	 1.7544 	 56.1954 	 32.0720 	 7.2648 	 2.3200
  0.3500 	 1.4250 	 10.1324 	 8.2735 	 1.4660 	 63.4523 	 1.7529 	 56.2824 	 31.5197 	 7.1699 	 2.3200
  0.3500 	 1.4300 	 10.1354 	 8.2723 	 1.4624 	 63.4415 	 1.7514 	 56.3689 	 30.9618 	 7.0726 	 2.3200
  0.3500 	 1.4350 	 10.1385 	 8.2711 	 1.4588 	 63.4278 	 1.7499 	 56.4550 	 30.3980 	 6.9729 	 2.3200
  0.3500 	 1.4400 	 10.1414 	 8.2698 	 1.4553 	 63.4111 	 1.7485 	 56.5406 	 29.8278 	 6.8705 	 2.3200
  0.3500 	 1.4450 	 10.1444 	 8.2686 	 1.4517 	 63.3912 	 1.7470 	 56.6257 	 29.2508 	 6.7654 	 2.3200
  0.3500 	 1.4500 	 10.1474 	 8.2674 	 1.4482 	 63.3680 	 1.7456 	 56.7105 	 28.6666 	 6.6575 	 2.3200
  0.3500 	 1.4550 	 10.1503 	 8.2662 	 1.4447 	 63.3414 	 1.7441 	 56.7947 	 28.0746 	 6.5467 	 2.3200
  0.3500 	 1.4600 	 10.1532 	 8.2650 	 1.4413 	 63.3113 	 1.7427 	 56.8786 	 27.4744 	 6.4327 	 2.3200
  0.3500 	 1.4650 	 10.1561 	 8.2639 	 1.4378 	 63.2774 	 1.7413 	 56.9620 	 26.8653 	 6.3155 	 2.3200
  0.3500 	 1.4700 	 10.1590 	 8.2627 	 1.4344 	 63.2397 	 1.7399 	 57.0449 	 26.2467 	 6.1948 	 2.3200
  0.3500 	 1.4750 	 10.1618 	 8.2615 	 1.4310 	 63.1979 	 1.7385 	 57.1275 	 25.6178 	 6.0705 	 2.3200
  0.3500 	 1.4800 	 10.1647 	 8.2604 	 1.4276 	 63.1518 	 1.7372 	 57.2096 	 24.9778 	 5.9423 	 2.3200
  0.3500 	 1.4850 	 10.1675 	 8.2592 	 1.4242 	 63.1012 	 1.7358 	 57.2912 	 24.3257 	 5.8100 	 2.3200
  0.3500 	 1.4900 	 10.1703 	 8.2581 	 1.4209 	 63.0458 	 1.7345 	 57.3725 	 23.6606 	 5.6733 	 2.3200
  0.3500 	 1.4950 	 10.1730 	 8.2570 	 1.4175 	 62.9852 	 1.7332 	 57.4533 	 22.9812 	 5.5318 	 2.3200
  0.3500 	 1.5000 	 10.1758 	 8.2559 	 1.4142 	 62.9191 	 1.7319 	 57.5337 	 22.2861 	 5.3853 	 2.3200
  0.3500 	 1.5050 	 10.1785 	 8.2547 	 1.4110 	 62.8471 	 1.7306 	 57.6137 	 21.5739 	 5.2333 	 2.3200
  0.3500 	 1.5100 	 10.1812 	 8.2536 	 1.4077 	 62.7687 	 1.7293 	 57.6933 	 20.8427 	 5.0753 	 2.3200
  0.3500 	 1.5150 	 10.1840 	 8.2525 	 1.4044 	 62.6833 	 1.7280 	 57.7725 	 20.0904 	 4.9108 	 2.3200
  0.3500 	 1.5200 	 10.1866 	 8.2515 	 1.4012 	 62.5903 	 1.7267 	 57.8513 	 19.3143 	 4.7390 	 2.3200
  0.3500 	 1.5250 	 10.1893 	 8.2504 	 1.3980 	 62.4888 	 1.7255 	 57.9297 	 18.5116 	 4.5591 	 2.3200
  0.3500 	 1.5300 	 10.1920 	 8.2493 	 1.3948 	 62.3779 	 1.7242 	 58.0076 	 17.6785 	 4.3703 	 2.3200
  0.3500 	 1.5350 	 10.1946 	 8.2482 	 1.3916 	 62.2564 	 1.7230 	 58.0852 	 16.8104 	 4.1712 	 2.3200
  0.3500 	 1.5400 	 10.1972 	 8.2472 	 1.3885 	 62.1227 	 1.7218 	 58.1624 	 15.9016 	 3.9603 	 2.3200
  0.3500 	 1.5450 	 10.1998 	 8.2461 	 1.3853 	 61.9748 	 1.7206 	 58.2392 	 14.9444 	 3.7356 	 2.3200
  0.3500 	 1.5500 	 10.2024 	 8.2451 	 1.3822 	 61.8102 	 1.7194 	 58.3156 	 13.9290 	 3.4946 	 2.3200
  0.3500 	 1.5550 	 10.2049 	 8.2440 	 1.3791 	 61.6251 	 1.7182 	 58.3916 	 12.8414 	 3.2334 	 2.3200
  0.3500 	 1.5600 	 10.2075 	 8.2430 	 1.3760 	 61.4142 	 1.7170 	 58.4672 	 11.6613 	 2.9469 	 2.3200
  0.3500 	 1.5650 	 10.2100 	 8.2420 	 1.3730 	 61.1693 	 1.7158 	 58.5425 	 10.3571 	 2.6268 	 2.3200
  0.3500 	 1.5700 	 10.2125 	 8.2410 	 1.3699 	 60.8761 	 1.7147 	 58.6174 	 8.8741 	 2.2588 	 2.3200
  0.3500 	 1.5750 	 10.2150 	 8.2400 	 1.3669 	 60.5058 	 1.7135 	 58.6919 	 7.1010 	 1.8139 	 2.3200
  0.3500 	 1.3850 	 10.1035 	 8.3033 	 1.5002 	 63.3464 	 1.7702 	 55.5104 	 35.7604 	 7.8361 	 2.3300
  0.3500 	 1.3900 	 10.1067 	 8.3019 	 1.4964 	 63.3564 	 1.7686 	 55.6008 	 35.2378 	 7.7557 	 2.3300
  0.3500 	 1.3950 	 10.1099 	 8.3006 	 1.4926 	 63.3641 	 1.7670 	 55.6907 	 34.7114 	 7.6734 	 2.3300
  0.3500 	 1.4000 	 10.1131 	 8.2993 	 1.4889 	 63.3693 	 1.7654 	 55.7801 	 34.1811 	 7.5891 	 2.3300
  0.3500 	 1.4050 	 10.1163 	 8.2980 	 1.4851 	 63.3719 	 1.7638 	 55.8691 	 33.6465 	 7.5028 	 2.3300
  0.3500 	 1.4100 	 10.1194 	 8.2967 	 1.4814 	 63.3720 	 1.7622 	 55.9576 	 33.1074 	 7.4145 	 2.3300
  0.3500 	 1.4150 	 10.1225 	 8.2954 	 1.4778 	 63.3695 	 1.7607 	 56.0456 	 32.5635 	 7.3239 	 2.3300
  0.3500 	 1.4200 	 10.1256 	 8.2942 	 1.4741 	 63.3643 	 1.7591 	 56.1331 	 32.0146 	 7.2311 	 2.3300
  0.3500 	 1.4250 	 10.1287 	 8.2929 	 1.4705 	 63.3563 	 1.7576 	 56.2202 	 31.4604 	 7.1360 	 2.3300
  0.3500 	 1.4300 	 10.1317 	 8.2917 	 1.4668 	 63.3454 	 1.7561 	 56.3069 	 30.9004 	 7.0385 	 2.3300
  0.3500 	 1.4350 	 10.1347 	 8.2904 	 1.4632 	 63.3315 	 1.7546 	 56.3930 	 30.3344 	 6.9385 	 2.3300
  0.3500 	 1.4400 	 10.1377 	 8.2892 	 1.4597 	 63.3146 	 1.7531 	 56.4787 	 29.7620 	 6.8359 	 2.3300
  0.3500 	 1.4450 	 10.1407 	 8.2880 	 1.4561 	 63.2945 	 1.7517 	 56.5640 	 29.1827 	 6.7305 	 2.3300
  0.3500 	 1.4500 	 10.1437 	 8.2868 	 1.4526 	 63.2712 	 1.7502 	 56.6488 	 28.5960 	 6.6223 	 2.3300
  0.3500 	 1.4550 	 10.1466 	 8.2856 	 1.4491 	 63.2444 	 1.7488 	 56.7332 	 28.0015 	 6.5112 	 2.3300
  0.3500 	 1.4600 	 10.1496 	 8.2844 	 1.4456 	 63.2140 	 1.7474 	 56.8171 	 27.3986 	 6.3969 	 2.3300
  0.3500 	 1.4650 	 10.1525 	 8.2832 	 1.4422 	 63.1799 	 1.7459 	 56.9006 	 26.7867 	 6.2793 	 2.3300
  0.3500 	 1.4700 	 10.1553 	 8.2820 	 1.4387 	 63.1418 	 1.7445 	 56.9837 	 26.1651 	 6.1582 	 2.3300
  0.3500 	 1.4750 	 10.1582 	 8.2808 	 1.4353 	 63.0997 	 1.7432 	 57.0663 	 25.5331 	 6.0334 	 2.3300
  0.3500 	 1.4800 	 10.1611 	 8.2797 	 1.4319 	 63.0532 	 1.7418 	 57.1485 	 24.8897 	 5.9047 	 2.3300
  0.3500 	 1.4850 	 10.1639 	 8.2785 	 1.4285 	 63.0021 	 1.7404 	 57.2303 	 24.2341 	 5.7719 	 2.3300
  0.3500 	 1.4900 	 10.1667 	 8.2774 	 1.4252 	 62.9462 	 1.7391 	 57.3116 	 23.5652 	 5.6346 	 2.3300
  0.3500 	 1.4950 	 10.1695 	 8.2762 	 1.4218 	 62.8851 	 1.7378 	 57.3926 	 22.8817 	 5.4925 	 2.3300
  0.3500 	 1.5000 	 10.1722 	 8.2751 	 1.4185 	 62.8183 	 1.7364 	 57.4731 	 22.1823 	 5.3453 	 2.3300
  0.3500 	 1.5050 	 10.1750 	 8.2740 	 1.4152 	 62.7456 	 1.7351 	 57.5532 	 21.4653 	 5.1925 	 2.3300
  0.3500 	 1.5100 	 10.1777 	 8.2729 	 1.4119 	 62.6664 	 1.7338 	 57.6328 	 20.7289 	 5.0336 	 2.3300
  0.3500 	 1.5150 	 10.1804 	 8.2718 	 1.4087 	 62.5801 	 1.7325 	 57.7121 	 19.9709 	 4.8680 	 2.3300
  0.3500 	 1.5200 	 10.1831 	 8.2707 	 1.4054 	 62.4861 	 1.7313 	 57.7910 	 19.1886 	 4.6951 	 2.3300
  0.3500 	 1.5250 	 10.1858 	 8.2696 	 1.4022 	 62.3834 	 1.7300 	 57.8695 	 18.3789 	 4.5139 	 2.3300
  0.3500 	 1.5300 	 10.1885 	 8.2685 	 1.3990 	 62.2711 	 1.7288 	 57.9475 	 17.5380 	 4.3235 	 2.3300
  0.3500 	 1.5350 	 10.1911 	 8.2674 	 1.3958 	 62.1478 	 1.7275 	 58.0252 	 16.6609 	 4.1226 	 2.3300
  0.3500 	 1.5400 	 10.1937 	 8.2664 	 1.3927 	 62.0121 	 1.7263 	 58.1025 	 15.7418 	 3.9097 	 2.3300
  0.3500 	 1.5450 	 10.1963 	 8.2653 	 1.3895 	 61.8618 	 1.7251 	 58.1794 	 14.7725 	 3.6825 	 2.3300
  0.3500 	 1.5500 	 10.1989 	 8.2642 	 1.3864 	 61.6941 	 1.7239 	 58.2559 	 13.7424 	 3.4383 	 2.3300
  0.3500 	 1.5550 	 10.2015 	 8.2632 	 1.3833 	 61.5051 	 1.7227 	 58.3320 	 12.6367 	 3.1732 	 2.3300
  0.3500 	 1.5600 	 10.2041 	 8.2622 	 1.3802 	 61.2891 	 1.7215 	 58.4077 	 11.4332 	 2.8814 	 2.3300
  0.3500 	 1.5650 	 10.2066 	 8.2611 	 1.3771 	 61.0369 	 1.7203 	 58.4830 	 10.0970 	 2.5538 	 2.3300
  0.3500 	 1.5700 	 10.2091 	 8.2601 	 1.3740 	 60.7324 	 1.7191 	 58.5580 	 8.5661 	 2.1744 	 2.3300
  0.3500 	 1.5750 	 10.2117 	 8.2591 	 1.3710 	 60.3415 	 1.7180 	 58.6326 	 6.7083 	 1.7089 	 2.3300
  0.3500 	 1.3850 	 10.0997 	 8.3227 	 1.5048 	 63.2513 	 1.7750 	 55.4477 	 35.7152 	 7.8037 	 2.3400
  0.3500 	 1.3900 	 10.1029 	 8.3213 	 1.5009 	 63.2613 	 1.7734 	 55.5382 	 35.1910 	 7.7232 	 2.3400
  0.3500 	 1.3950 	 10.1061 	 8.3200 	 1.4971 	 63.2689 	 1.7717 	 55.6282 	 34.6630 	 7.6407 	 2.3400
  0.3500 	 1.4000 	 10.1093 	 8.3187 	 1.4934 	 63.2740 	 1.7701 	 55.7177 	 34.1310 	 7.5563 	 2.3400
  0.3500 	 1.4050 	 10.1125 	 8.3174 	 1.4896 	 63.2767 	 1.7685 	 55.8068 	 33.5947 	 7.4699 	 2.3400
  0.3500 	 1.4100 	 10.1156 	 8.3161 	 1.4859 	 63.2767 	 1.7670 	 55.8954 	 33.0538 	 7.3813 	 2.3400
  0.3500 	 1.4150 	 10.1187 	 8.3148 	 1.4822 	 63.2741 	 1.7654 	 55.9835 	 32.5081 	 7.2906 	 2.3400
  0.3500 	 1.4200 	 10.1218 	 8.3135 	 1.4785 	 63.2688 	 1.7638 	 56.0711 	 31.9573 	 7.1977 	 2.3400
  0.3500 	 1.4250 	 10.1249 	 8.3123 	 1.4749 	 63.2606 	 1.7623 	 56.1583 	 31.4010 	 7.1024 	 2.3400
  0.3500 	 1.4300 	 10.1280 	 8.3110 	 1.4713 	 63.2496 	 1.7608 	 56.2450 	 30.8390 	 7.0046 	 2.3400
  0.3500 	 1.4350 	 10.1310 	 8.3098 	 1.4677 	 63.2356 	 1.7593 	 56.3313 	 30.2708 	 6.9044 	 2.3400
  0.3500 	 1.4400 	 10.1340 	 8.3085 	 1.4641 	 63.2186 	 1.7578 	 56.4171 	 29.6962 	 6.8015 	 2.3400
  0.3500 	 1.4450 	 10.1370 	 8.3073 	 1.4605 	 63.1983 	 1.7563 	 56.5025 	 29.1145 	 6.6959 	 2.3400
  0.3500 	 1.4500 	 10.1400 	 8.3061 	 1.4570 	 63.1747 	 1.7549 	 56.5874 	 28.5254 	 6.5874 	 2.3400
  0.3500 	 1.4550 	 10.1430 	 8.3049 	 1.4535 	 63.1477 	 1.7534 	 56.6718 	 27.9283 	 6.4759 	 2.3400
  0.3500 	 1.4600 	 10.1459 	 8.3036 	 1.4500 	 63.1171 	 1.7520 	 56.7559 	 27.3228 	 6.3612 	 2.3400
  0.3500 	 1.4650 	 10.1488 	 8.3025 	 1.4465 	 63.0827 	 1.7506 	 56.8394 	 26.7080 	 6.2432 	 2.3400
  0.3500 	 1.4700 	 10.1517 	 8.3013 	 1.4430 	 63.0443 	 1.7492 	 56.9226 	 26.0834 	 6.1217 	 2.3400
  0.3500 	 1.4750 	 10.1546 	 8.3001 	 1.4396 	 63.0018 	 1.7478 	 57.0053 	 25.4482 	 5.9965 	 2.3400
  0.3500 	 1.4800 	 10.1575 	 8.2989 	 1.4362 	 62.9550 	 1.7464 	 57.0876 	 24.8015 	 5.8674 	 2.3400
  0.3500 	 1.4850 	 10.1603 	 8.2978 	 1.4328 	 62.9035 	 1.7450 	 57.1695 	 24.1423 	 5.7340 	 2.3400
  0.3500 	 1.4900 	 10.1631 	 8.2966 	 1.4294 	 62.8470 	 1.7437 	 57.2509 	 23.4695 	 5.5961 	 2.3400
  0.3500 	 1.4950 	 10.1659 	 8.2955 	 1.4261 	 62.7853 	 1.7423 	 57.3320 	 22.7820 	 5.4533 	 2.3400
  0.3500 	 1.5000 	 10.1687 	 8.2943 	 1.4228 	 62.7180 	 1.7410 	 57.4126 	 22.0781 	 5.3054 	 2.3400
  0.3500 	 1.5050 	 10.1714 	 8.2932 	 1.4195 	 62.6445 	 1.7397 	 57.4928 	 21.3564 	 5.1518 	 2.3400
  0.3500 	 1.5100 	 10.1742 	 8.2921 	 1.4162 	 62.5645 	 1.7384 	 57.5725 	 20.6147 	 4.9920 	 2.3400
  0.3500 	 1.5150 	 10.1769 	 8.2910 	 1.4129 	 62.4773 	 1.7371 	 57.6519 	 19.8510 	 4.8254 	 2.3400
  0.3500 	 1.5200 	 10.1796 	 8.2899 	 1.4096 	 62.3821 	 1.7358 	 57.7309 	 19.0623 	 4.6513 	 2.3400
  0.3500 	 1.5250 	 10.1823 	 8.2888 	 1.4064 	 62.2782 	 1.7345 	 57.8094 	 18.2455 	 4.4688 	 2.3400
  0.3500 	 1.5300 	 10.1850 	 8.2877 	 1.4032 	 62.1644 	 1.7333 	 57.8876 	 17.3966 	 4.2768 	 2.3400
  0.3500 	 1.5350 	 10.1876 	 8.2866 	 1.4000 	 62.0395 	 1.7320 	 57.9654 	 16.5104 	 4.0742 	 2.3400
  0.3500 	 1.5400 	 10.1903 	 8.2855 	 1.3968 	 61.9017 	 1.7308 	 58.0427 	 15.5806 	 3.8590 	 2.3400
  0.3500 	 1.5450 	 10.1929 	 8.2845 	 1.3937 	 61.7489 	 1.7296 	 58.1197 	 14.5988 	 3.6292 	 2.3400
  0.3500 	 1.5500 	 10.1955 	 8.2834 	 1.3905 	 61.5780 	 1.7284 	 58.1963 	 13.5537 	 3.3817 	 2.3400
  0.3500 	 1.5550 	 10.1981 	 8.2823 	 1.3874 	 61.3850 	 1.7272 	 58.2725 	 12.4290 	 3.1125 	 2.3400
  0.3500 	 1.5600 	 10.2007 	 8.2813 	 1.3843 	 61.1635 	 1.7260 	 58.3483 	 11.2009 	 2.8151 	 2.3400
  0.3500 	 1.5650 	 10.2032 	 8.2803 	 1.3812 	 60.9034 	 1.7248 	 58.4238 	 9.8306 	 2.4796 	 2.3400
  0.3500 	 1.5700 	 10.2057 	 8.2792 	 1.3781 	 60.5866 	 1.7236 	 58.4988 	 8.2473 	 2.0877 	 2.3400
  0.3500 	 1.5750 	 10.2083 	 8.2782 	 1.3751 	 60.1720 	 1.7225 	 58.5735 	 6.2920 	 1.5985 	 2.3400
  0.3500 	 1.3850 	 10.0958 	 8.3421 	 1.5093 	 63.1567 	 1.7798 	 55.3851 	 35.6700 	 7.7715 	 2.3500
  0.3500 	 1.3900 	 10.0991 	 8.3407 	 1.5055 	 63.1666 	 1.7781 	 55.4757 	 35.1443 	 7.6909 	 2.3500
  0.3500 	 1.3950 	 10.1023 	 8.3394 	 1.5017 	 63.1742 	 1.7765 	 55.5658 	 34.6146 	 7.6083 	 2.3500
  0.3500 	 1.4000 	 10.1055 	 8.3381 	 1.4979 	 63.1792 	 1.7749 	 55.6555 	 34.0809 	 7.5238 	 2.3500
  0.3500 	 1.4050 	 10.1087 	 8.3367 	 1.4941 	 63.1818 	 1.7733 	 55.7446 	 33.5428 	 7.4372 	 2.3500
  0.3500 	 1.4100 	 10.1118 	 8.3354 	 1.4904 	 63.1818 	 1.7717 	 55.8333 	 33.0002 	 7.3484 	 2.3500
  0.3500 	 1.4150 	 10.1150 	 8.3341 	 1.4867 	 63.1791 	 1.7701 	 55.9215 	 32.4526 	 7.2576 	 2.3500
  0.3500 	 1.4200 	 10.1181 	 8.3329 	 1.4830 	 63.1736 	 1.7685 	 56.0093 	 31.8999 	 7.1644 	 2.3500
  0.3500 	 1.4250 	 10.1212 	 8.3316 	 1.4793 	 63.1654 	 1.7670 	 56.0965 	 31.3416 	 7.0689 	 2.3500
  0.3500 	 1.4300 	 10.1243 	 8.3303 	 1.4757 	 63.1543 	 1.7655 	 56.1834 	 30.7775 	 6.9709 	 2.3500
  0.3500 	 1.4350 	 10.1273 	 8.3291 	 1.4721 	 63.1402 	 1.7640 	 56.2697 	 30.2072 	 6.8704 	 2.3500
  0.3500 	 1.4400 	 10.1303 	 8.3278 	 1.4685 	 63.1229 	 1.7625 	 56.3556 	 29.6303 	 6.7673 	 2.3500
  0.3500 	 1.4450 	 10.1334 	 8.3266 	 1.4649 	 63.1025 	 1.7610 	 56.4411 	 29.0463 	 6.6614 	 2.3500
  0.3500 	 1.4500 	 10.1363 	 8.3253 	 1.4613 	 63.0787 	 1.7595 	 56.5261 	 28.4547 	 6.5526 	 2.3500
  0.3500 	 1.4550 	 10.1393 	 8.3241 	 1.4578 	 63.0514 	 1.7581 	 56.6107 	 27.8551 	 6.4408 	 2.3500
  0.3500 	 1.4600 	 10.1423 	 8.3229 	 1.4543 	 63.0206 	 1.7566 	 56.6948 	 27.2468 	 6.3258 	 2.3500
  0.3500 	 1.4650 	 10.1452 	 8.3217 	 1.4508 	 62.9859 	 1.7552 	 56.7785 	 26.6292 	 6.2074 	 2.3500
  0.3500 	 1.4700 	 10.1481 	 8.3205 	 1.4474 	 62.9472 	 1.7538 	 56.8617 	 26.0016 	 6.0855 	 2.3500
  0.3500 	 1.4750 	 10.1510 	 8.3193 	 1.4439 	 62.9044 	 1.7524 	 56.9445 	 25.3632 	 5.9598 	 2.3500
  0.3500 	 1.4800 	 10.1538 	 8.3181 	 1.4405 	 62.8571 	 1.7510 	 57.0269 	 24.7131 	 5.8302 	 2.3500
  0.3500 	 1.4850 	 10.1567 	 8.3170 	 1.4371 	 62.8051 	 1.7496 	 57.1089 	 24.0503 	 5.6963 	 2.3500
  0.3500 	 1.4900 	 10.1595 	 8.3158 	 1.4337 	 62.7482 	 1.7483 	 57.1904 	 23.3737 	 5.5578 	 2.3500
  0.3500 	 1.4950 	 10.1623 	 8.3147 	 1.4304 	 62.6859 	 1.7469 	 57.2715 	 22.6820 	 5.4144 	 2.3500
  0.3500 	 1.5000 	 10.1651 	 8.3135 	 1.4270 	 62.6179 	 1.7456 	 57.3522 	 21.9737 	 5.2657 	 2.3500
  0.3500 	 1.5050 	 10.1679 	 8.3124 	 1.4237 	 62.5438 	 1.7442 	 57.4325 	 21.2470 	 5.1112 	 2.3500
  0.3500 	 1.5100 	 10.1707 	 8.3113 	 1.4204 	 62.4629 	 1.7429 	 57.5124 	 20.5001 	 4.9505 	 2.3500
  0.3500 	 1.5150 	 10.1734 	 8.3101 	 1.4171 	 62.3747 	 1.7416 	 57.5919 	 19.7305 	 4.7829 	 2.3500
  0.3500 	 1.5200 	 10.1761 	 8.3090 	 1.4138 	 62.2785 	 1.7403 	 57.6709 	 18.9354 	 4.6076 	 2.3500
  0.3500 	 1.5250 	 10.1788 	 8.3079 	 1.4106 	 62.1733 	 1.7391 	 57.7496 	 18.1114 	 4.4237 	 2.3500
  0.3500 	 1.5300 	 10.1815 	 8.3068 	 1.4074 	 62.0581 	 1.7378 	 57.8278 	 17.2543 	 4.2302 	 2.3500
  0.3500 	 1.5350 	 10.1842 	 8.3057 	 1.4042 	 61.9314 	 1.7365 	 57.9057 	 16.3588 	 4.0257 	 2.3500
  0.3500 	 1.5400 	 10.1868 	 8.3046 	 1.4010 	 61.7915 	 1.7353 	 57.9832 	 15.4182 	 3.8083 	 2.3500
  0.3500 	 1.5450 	 10.1894 	 8.3036 	 1.3978 	 61.6360 	 1.7341 	 58.0602 	 14.4235 	 3.5758 	 2.3500
  0.3500 	 1.5500 	 10.1921 	 8.3025 	 1.3947 	 61.4619 	 1.7328 	 58.1369 	 13.3626 	 3.3250 	 2.3500
  0.3500 	 1.5550 	 10.1947 	 8.3014 	 1.3915 	 61.2646 	 1.7316 	 58.2132 	 12.2183 	 3.0513 	 2.3500
  0.3500 	 1.5600 	 10.1972 	 8.3004 	 1.3884 	 61.0373 	 1.7304 	 58.2891 	 10.9642 	 2.7481 	 2.3500
  0.3500 	 1.5650 	 10.1998 	 8.2993 	 1.3853 	 60.7688 	 1.7293 	 58.3647 	 9.5573 	 2.4042 	 2.3500
  0.3500 	 1.5700 	 10.2024 	 8.2983 	 1.3822 	 60.4383 	 1.7281 	 58.4398 	 7.9163 	 1.9985 	 2.3500
  0.3500 	 1.5750 	 10.2049 	 8.2973 	 1.3792 	 59.9960 	 1.7269 	 58.5146 	 5.8471 	 1.4814 	 2.3500
  0.3500 	 1.3850 	 10.0920 	 8.3614 	 1.5138 	 63.0624 	 1.7845 	 55.3228 	 35.6248 	 7.7395 	 2.3600
  0.3500 	 1.3900 	 10.0952 	 8.3601 	 1.5100 	 63.0723 	 1.7829 	 55.4135 	 35.0975 	 7.6588 	 2.3600
  0.3500 	 1.3950 	 10.0985 	 8.3587 	 1.5062 	 63.0798 	 1.7812 	 55.5037 	 34.5662 	 7.5761 	 2.3600
  0.3500 	 1.4000 	 10.1017 	 8.3574 	 1.5024 	 63.0848 	 1.7796 	 55.5934 	 34.0308 	 7.4914 	 2.3600
  0.3500 	 1.4050 	 10.1049 	 8.3561 	 1.4986 	 63.0873 	 1.7780 	 55.6827 	 33.4910 	 7.4046 	 2.3600
  0.3500 	 1.4100 	 10.1081 	 8.3547 	 1.4948 	 63.0872 	 1.7764 	 55.7715 	 32.9465 	 7.3158 	 2.3600
  0.3500 	 1.4150 	 10.1112 	 8.3534 	 1.4911 	 63.0844 	 1.7748 	 55.8598 	 32.3971 	 7.2247 	 2.3600
  0.3500 	 1.4200 	 10.1143 	 8.3521 	 1.4874 	 63.0789 	 1.7732 	 55.9476 	 31.8424 	 7.1313 	 2.3600
  0.3500 	 1.4250 	 10.1175 	 8.3509 	 1.4837 	 63.0706 	 1.7717 	 56.0350 	 31.2822 	 7.0356 	 2.3600
  0.3500 	 1.4300 	 10.1205 	 8.3496 	 1.4801 	 63.0593 	 1.7702 	 56.1219 	 30.7160 	 6.9374 	 2.3600
  0.3500 	 1.4350 	 10.1236 	 8.3483 	 1.4765 	 63.0451 	 1.7686 	 56.2083 	 30.1435 	 6.8367 	 2.3600
  0.3500 	 1.4400 	 10.1266 	 8.3471 	 1.4729 	 63.0277 	 1.7671 	 56.2943 	 29.5643 	 6.7333 	 2.3600
  0.3500 	 1.4450 	 10.1297 	 8.3458 	 1.4693 	 63.0070 	 1.7656 	 56.3799 	 28.9780 	 6.6271 	 2.3600
  0.3500 	 1.4500 	 10.1327 	 8.3446 	 1.4657 	 62.9830 	 1.7642 	 56.4650 	 28.3840 	 6.5181 	 2.3600
  0.3500 	 1.4550 	 10.1356 	 8.3433 	 1.4622 	 62.9556 	 1.7627 	 56.5496 	 27.7817 	 6.4059 	 2.3600
  0.3500 	 1.4600 	 10.1386 	 8.3421 	 1.4587 	 62.9244 	 1.7612 	 56.6339 	 27.1707 	 6.2906 	 2.3600
  0.3500 	 1.4650 	 10.1415 	 8.3409 	 1.4552 	 62.8895 	 1.7598 	 56.7176 	 26.5503 	 6.1718 	 2.3600
  0.3500 	 1.4700 	 10.1445 	 8.3397 	 1.4517 	 62.8505 	 1.7584 	 56.8010 	 25.9197 	 6.0495 	 2.3600
  0.3500 	 1.4750 	 10.1474 	 8.3385 	 1.4482 	 62.8073 	 1.7570 	 56.8839 	 25.2780 	 5.9234 	 2.3600
  0.3500 	 1.4800 	 10.1502 	 8.3373 	 1.4448 	 62.7596 	 1.7556 	 56.9664 	 24.6245 	 5.7932 	 2.3600
  0.3500 	 1.4850 	 10.1531 	 8.3362 	 1.4414 	 62.7072 	 1.7542 	 57.0484 	 23.9581 	 5.6587 	 2.3600
  0.3500 	 1.4900 	 10.1560 	 8.3350 	 1.4380 	 62.6497 	 1.7528 	 57.1301 	 23.2776 	 5.5196 	 2.3600
  0.3500 	 1.4950 	 10.1588 	 8.3338 	 1.4346 	 62.5869 	 1.7515 	 57.2113 	 22.5817 	 5.3756 	 2.3600
  0.3500 	 1.5000 	 10.1616 	 8.3327 	 1.4313 	 62.5182 	 1.7501 	 57.2921 	 21.8689 	 5.2261 	 2.3600
  0.3500 	 1.5050 	 10.1644 	 8.3315 	 1.4279 	 62.4433 	 1.7488 	 57.3725 	 21.1373 	 5.0709 	 2.3600
  0.3500 	 1.5100 	 10.1671 	 8.3304 	 1.4246 	 62.3616 	 1.7475 	 57.4524 	 20.3851 	 4.9092 	 2.3600
  0.3500 	 1.5150 	 10.1699 	 8.3293 	 1.4213 	 62.2725 	 1.7462 	 57.5320 	 19.6095 	 4.7405 	 2.3600
  0.3500 	 1.5200 	 10.1726 	 8.3281 	 1.4181 	 62.1752 	 1.7449 	 57.6111 	 18.8079 	 4.5640 	 2.3600
  0.3500 	 1.5250 	 10.1753 	 8.3270 	 1.4148 	 62.0687 	 1.7436 	 57.6899 	 17.9765 	 4.3788 	 2.3600
  0.3500 	 1.5300 	 10.1780 	 8.3259 	 1.4116 	 61.9519 	 1.7423 	 57.7683 	 17.1111 	 4.1837 	 2.3600
  0.3500 	 1.5350 	 10.1807 	 8.3248 	 1.4084 	 61.8234 	 1.7411 	 57.8462 	 16.2060 	 3.9772 	 2.3600
  0.3500 	 1.5400 	 10.1834 	 8.3237 	 1.4052 	 61.6813 	 1.7398 	 57.9238 	 15.2543 	 3.7575 	 2.3600
  0.3500 	 1.5450 	 10.1860 	 8.3227 	 1.4020 	 61.5232 	 1.7386 	 58.0009 	 14.2463 	 3.5222 	 2.3600
  0.3500 	 1.5500 	 10.1886 	 8.3216 	 1.3988 	 61.3456 	 1.7373 	 58.0777 	 13.1692 	 3.2679 	 2.3600
  0.3500 	 1.5550 	 10.1912 	 8.3205 	 1.3957 	 61.1438 	 1.7361 	 58.1541 	 12.0042 	 2.9897 	 2.3600
  0.3500 	 1.5600 	 10.1938 	 8.3195 	 1.3925 	 60.9104 	 1.7349 	 58.2301 	 10.7228 	 2.6803 	 2.3600
  0.3500 	 1.5650 	 10.1964 	 8.3184 	 1.3894 	 60.6329 	 1.7337 	 58.3057 	 9.2765 	 2.3272 	 2.3600
  0.3500 	 1.5700 	 10.1990 	 8.3174 	 1.3863 	 60.2873 	 1.7325 	 58.3810 	 7.5716 	 1.9063 	 2.3600
  0.3500 	 1.5750 	 10.2015 	 8.3163 	 1.3833 	 59.8118 	 1.7314 	 58.4558 	 5.3665 	 1.3560 	 2.3600
  0.3500 	 1.3850 	 10.0881 	 8.3807 	 1.5183 	 62.9685 	 1.7893 	 55.2607 	 35.5796 	 7.7078 	 2.3700
  0.3500 	 1.3900 	 10.0914 	 8.3794 	 1.5145 	 62.9784 	 1.7876 	 55.3515 	 35.0507 	 7.6269 	 2.3700
  0.3500 	 1.3950 	 10.0947 	 8.3780 	 1.5107 	 62.9858 	 1.7860 	 55.4417 	 34.5178 	 7.5441 	 2.3700
  0.3500 	 1.4000 	 10.0979 	 8.3767 	 1.5068 	 62.9908 	 1.7843 	 55.5316 	 33.9807 	 7.4592 	 2.3700
  0.3500 	 1.4050 	 10.1011 	 8.3753 	 1.5031 	 62.9932 	 1.7827 	 55.6209 	 33.4391 	 7.3723 	 2.3700
  0.3500 	 1.4100 	 10.1043 	 8.3740 	 1.4993 	 62.9931 	 1.7811 	 55.7098 	 32.8929 	 7.2833 	 2.3700
  0.3500 	 1.4150 	 10.1074 	 8.3727 	 1.4956 	 62.9902 	 1.7795 	 55.7982 	 32.3416 	 7.1920 	 2.3700
  0.3500 	 1.4200 	 10.1106 	 8.3714 	 1.4919 	 62.9846 	 1.7779 	 55.8861 	 31.7850 	 7.0985 	 2.3700
  0.3500 	 1.4250 	 10.1137 	 8.3701 	 1.4882 	 62.9761 	 1.7764 	 55.9736 	 31.2227 	 7.0026 	 2.3700
  0.3500 	 1.4300 	 10.1168 	 8.3688 	 1.4845 	 62.9647 	 1.7748 	 56.0606 	 30.6545 	 6.9042 	 2.3700
  0.3500 	 1.4350 	 10.1199 	 8.3676 	 1.4809 	 62.9503 	 1.7733 	 56.1471 	 30.0798 	 6.8032 	 2.3700
  0.3500 	 1.4400 	 10.1229 	 8.3663 	 1.4772 	 62.9328 	 1.7718 	 56.2332 	 29.4984 	 6.6995 	 2.3700
  0.3500 	 1.4450 	 10.1260 	 8.3650 	 1.4736 	 62.9120 	 1.7703 	 56.3189 	 28.9096 	 6.5931 	 2.3700
  0.3500 	 1.4500 	 10.1290 	 8.3638 	 1.4701 	 62.8878 	 1.7688 	 56.4041 	 28.3132 	 6.4837 	 2.3700
  0.3500 	 1.4550 	 10.1320 	 8.3625 	 1.4665 	 62.8601 	 1.7673 	 56.4888 	 27.7083 	 6.3712 	 2.3700
  0.3500 	 1.4600 	 10.1350 	 8.3613 	 1.4630 	 62.8287 	 1.7659 	 56.5731 	 27.0946 	 6.2555 	 2.3700
  0.3500 	 1.4650 	 10.1379 	 8.3601 	 1.4595 	 62.7934 	 1.7644 	 56.6570 	 26.4713 	 6.1364 	 2.3700
  0.3500 	 1.4700 	 10.1408 	 8.3589 	 1.4560 	 62.7541 	 1.7630 	 56.7404 	 25.8376 	 6.0136 	 2.3700
  0.3500 	 1.4750 	 10.1438 	 8.3577 	 1.4525 	 62.7105 	 1.7616 	 56.8235 	 25.1928 	 5.8871 	 2.3700
  0.3500 	 1.4800 	 10.1466 	 8.3565 	 1.4491 	 62.6624 	 1.7602 	 56.9060 	 24.5358 	 5.7564 	 2.3700
  0.3500 	 1.4850 	 10.1495 	 8.3553 	 1.4457 	 62.6095 	 1.7588 	 56.9882 	 23.8657 	 5.6214 	 2.3700
  0.3500 	 1.4900 	 10.1524 	 8.3541 	 1.4423 	 62.5516 	 1.7574 	 57.0699 	 23.1813 	 5.4817 	 2.3700
  0.3500 	 1.4950 	 10.1552 	 8.3530 	 1.4389 	 62.4881 	 1.7560 	 57.1512 	 22.4812 	 5.3369 	 2.3700
  0.3500 	 1.5000 	 10.1580 	 8.3518 	 1.4355 	 62.4189 	 1.7547 	 57.2321 	 21.7638 	 5.1867 	 2.3700
  0.3500 	 1.5050 	 10.1608 	 8.3507 	 1.4322 	 62.3432 	 1.7533 	 57.3126 	 21.0273 	 5.0306 	 2.3700
  0.3500 	 1.5100 	 10.1636 	 8.3495 	 1.4288 	 62.2607 	 1.7520 	 57.3926 	 20.2696 	 4.8680 	 2.3700
  0.3500 	 1.5150 	 10.1664 	 8.3484 	 1.4255 	 62.1706 	 1.7507 	 57.4723 	 19.4881 	 4.6983 	 2.3700
  0.3500 	 1.5200 	 10.1691 	 8.3472 	 1.4223 	 62.0721 	 1.7494 	 57.5515 	 18.6797 	 4.5205 	 2.3700
  0.3500 	 1.5250 	 10.1718 	 8.3461 	 1.4190 	 61.9643 	 1.7481 	 57.6304 	 17.8409 	 4.3339 	 2.3700
  0.3500 	 1.5300 	 10.1745 	 8.3450 	 1.4157 	 61.8460 	 1.7468 	 57.7088 	 16.9670 	 4.1371 	 2.3700
  0.3500 	 1.5350 	 10.1772 	 8.3439 	 1.4125 	 61.7156 	 1.7456 	 57.7869 	 16.0521 	 3.9287 	 2.3700
  0.3500 	 1.5400 	 10.1799 	 8.3428 	 1.4093 	 61.5713 	 1.7443 	 57.8645 	 15.0889 	 3.7067 	 2.3700
  0.3500 	 1.5450 	 10.1826 	 8.3417 	 1.4061 	 61.4103 	 1.7431 	 57.9418 	 14.0672 	 3.4685 	 2.3700
  0.3500 	 1.5500 	 10.1852 	 8.3406 	 1.4030 	 61.2292 	 1.7418 	 58.0187 	 12.9732 	 3.2106 	 2.3700
  0.3500 	 1.5550 	 10.1878 	 8.3396 	 1.3998 	 61.0228 	 1.7406 	 58.0951 	 11.7867 	 2.9276 	 2.3700
  0.3500 	 1.5600 	 10.1904 	 8.3385 	 1.3967 	 60.7829 	 1.7394 	 58.1712 	 10.4762 	 2.6116 	 2.3700
  0.3500 	 1.5650 	 10.1930 	 8.3374 	 1.3935 	 60.4956 	 1.7382 	 58.2470 	 8.9876 	 2.2486 	 2.3700
  0.3500 	 1.5700 	 10.1956 	 8.3364 	 1.3904 	 60.1330 	 1.7370 	 58.3223 	 7.2111 	 1.8107 	 2.3700
  0.3500 	 1.3850 	 10.0843 	 8.4000 	 1.5229 	 62.8749 	 1.7940 	 55.1987 	 35.5344 	 7.6762 	 2.3800
  0.3500 	 1.3900 	 10.0876 	 8.3987 	 1.5190 	 62.8848 	 1.7924 	 55.2896 	 35.0039 	 7.5952 	 2.3800
  0.3500 	 1.3950 	 10.0908 	 8.3973 	 1.5151 	 62.8922 	 1.7907 	 55.3800 	 34.4694 	 7.5123 	 2.3800
  0.3500 	 1.4000 	 10.0941 	 8.3960 	 1.5113 	 62.8972 	 1.7890 	 55.4699 	 33.9306 	 7.4273 	 2.3800
  0.3500 	 1.4050 	 10.0973 	 8.3946 	 1.5075 	 62.8995 	 1.7874 	 55.5593 	 33.3873 	 7.3402 	 2.3800
  0.3500 	 1.4100 	 10.1005 	 8.3933 	 1.5038 	 62.8993 	 1.7858 	 55.6483 	 32.8392 	 7.2510 	 2.3800
  0.3500 	 1.4150 	 10.1037 	 8.3920 	 1.5000 	 62.8964 	 1.7842 	 55.7368 	 32.2860 	 7.1596 	 2.3800
  0.3500 	 1.4200 	 10.1068 	 8.3906 	 1.4963 	 62.8906 	 1.7826 	 55.8248 	 31.7275 	 7.0658 	 2.3800
  0.3500 	 1.4250 	 10.1100 	 8.3893 	 1.4926 	 62.8821 	 1.7811 	 55.9124 	 31.1632 	 6.9697 	 2.3800
  0.3500 	 1.4300 	 10.1131 	 8.3880 	 1.4889 	 62.8706 	 1.7795 	 55.9995 	 30.5929 	 6.8711 	 2.3800
  0.3500 	 1.4350 	 10.1162 	 8.3868 	 1.4853 	 62.8560 	 1.7780 	 56.0861 	 30.0161 	 6.7699 	 2.3800
  0.3500 	 1.4400 	 10.1192 	 8.3855 	 1.4816 	 62.8383 	 1.7764 	 56.1723 	 29.4324 	 6.6660 	 2.3800
  0.3500 	 1.4450 	 10.1223 	 8.3842 	 1.4780 	 62.8173 	 1.7749 	 56.2580 	 28.8413 	 6.5592 	 2.3800
  0.3500 	 1.4500 	 10.1253 	 8.3830 	 1.4744 	 62.7929 	 1.7734 	 56.3433 	 28.2423 	 6.4495 	 2.3800
  0.3500 	 1.4550 	 10.1283 	 8.3817 	 1.4709 	 62.7649 	 1.7720 	 56.4282 	 27.6349 	 6.3367 	 2.3800
  0.3500 	 1.4600 	 10.1313 	 8.3805 	 1.4673 	 62.7333 	 1.7705 	 56.5126 	 27.0184 	 6.2207 	 2.3800
  0.3500 	 1.4650 	 10.1343 	 8.3793 	 1.4638 	 62.6977 	 1.7690 	 56.5966 	 26.3921 	 6.1012 	 2.3800
  0.3500 	 1.4700 	 10.1372 	 8.3780 	 1.4603 	 62.6581 	 1.7676 	 56.6801 	 25.7554 	 5.9780 	 2.3800
  0.3500 	 1.4750 	 10.1401 	 8.3768 	 1.4568 	 62.6141 	 1.7662 	 56.7632 	 25.1073 	 5.8509 	 2.3800
  0.3500 	 1.4800 	 10.1430 	 8.3756 	 1.4534 	 62.5656 	 1.7648 	 56.8459 	 24.4469 	 5.7198 	 2.3800
  0.3500 	 1.4850 	 10.1459 	 8.3744 	 1.4499 	 62.5123 	 1.7634 	 56.9281 	 23.7732 	 5.5842 	 2.3800
  0.3500 	 1.4900 	 10.1488 	 8.3732 	 1.4465 	 62.4538 	 1.7620 	 57.0099 	 23.0848 	 5.4439 	 2.3800
  0.3500 	 1.4950 	 10.1516 	 8.3721 	 1.4431 	 62.3898 	 1.7606 	 57.0913 	 22.3804 	 5.2985 	 2.3800
  0.3500 	 1.5000 	 10.1545 	 8.3709 	 1.4398 	 62.3198 	 1.7592 	 57.1723 	 21.6584 	 5.1475 	 2.3800
  0.3500 	 1.5050 	 10.1573 	 8.3697 	 1.4364 	 62.2434 	 1.7579 	 57.2529 	 20.9169 	 4.9906 	 2.3800
  0.3500 	 1.5100 	 10.1601 	 8.3686 	 1.4331 	 62.1600 	 1.7566 	 57.3330 	 20.1536 	 4.8270 	 2.3800
  0.3500 	 1.5150 	 10.1628 	 8.3674 	 1.4298 	 62.0689 	 1.7552 	 57.4128 	 19.3660 	 4.6561 	 2.3800
  0.3500 	 1.5200 	 10.1656 	 8.3663 	 1.4265 	 61.9693 	 1.7539 	 57.4921 	 18.5510 	 4.4772 	 2.3800
  0.3500 	 1.5250 	 10.1683 	 8.3652 	 1.4232 	 61.8601 	 1.7526 	 57.5711 	 17.7045 	 4.2891 	 2.3800
  0.3500 	 1.5300 	 10.1711 	 8.3641 	 1.4199 	 61.7402 	 1.7513 	 57.6496 	 16.8219 	 4.0906 	 2.3800
  0.3500 	 1.5350 	 10.1738 	 8.3630 	 1.4167 	 61.6080 	 1.7501 	 57.7277 	 15.8971 	 3.8802 	 2.3800
  0.3500 	 1.5400 	 10.1764 	 8.3619 	 1.4135 	 61.4613 	 1.7488 	 57.8055 	 14.9220 	 3.6558 	 2.3800
  0.3500 	 1.5450 	 10.1791 	 8.3608 	 1.4103 	 61.2975 	 1.7475 	 57.8828 	 13.8862 	 3.4147 	 2.3800
  0.3500 	 1.5500 	 10.1817 	 8.3597 	 1.4071 	 61.1127 	 1.7463 	 57.9598 	 12.7747 	 3.1529 	 2.3800
  0.3500 	 1.5550 	 10.1844 	 8.3586 	 1.4039 	 60.9013 	 1.7451 	 58.0364 	 11.5656 	 2.8650 	 2.3800
  0.3500 	 1.5600 	 10.1870 	 8.3575 	 1.4008 	 60.6545 	 1.7438 	 58.1126 	 10.2243 	 2.5420 	 2.3800
  0.3500 	 1.5650 	 10.1896 	 8.3564 	 1.3976 	 60.3566 	 1.7426 	 58.1884 	 8.6897 	 2.1683 	 2.3800
  0.3500 	 1.5700 	 10.1922 	 8.3554 	 1.3945 	 59.9748 	 1.7414 	 58.2638 	 6.8325 	 1.7110 	 2.3800
  0.3500 	 1.3850 	 10.0804 	 8.4193 	 1.5274 	 62.7818 	 1.7988 	 55.1369 	 35.4892 	 7.6449 	 2.3900
  0.3500 	 1.3900 	 10.0837 	 8.4179 	 1.5235 	 62.7917 	 1.7971 	 55.2279 	 34.9571 	 7.5637 	 2.3900
  0.3500 	 1.3950 	 10.0870 	 8.4166 	 1.5196 	 62.7990 	 1.7954 	 55.3184 	 34.4209 	 7.4806 	 2.3900
  0.3500 	 1.4000 	 10.0903 	 8.4152 	 1.5158 	 62.8039 	 1.7938 	 55.4084 	 33.8804 	 7.3955 	 2.3900
  0.3500 	 1.4050 	 10.0935 	 8.4138 	 1.5120 	 62.8062 	 1.7921 	 55.4979 	 33.3354 	 7.3083 	 2.3900
  0.3500 	 1.4100 	 10.0967 	 8.4125 	 1.5082 	 62.8059 	 1.7905 	 55.5870 	 32.7855 	 7.2189 	 2.3900
  0.3500 	 1.4150 	 10.0999 	 8.4112 	 1.5045 	 62.8029 	 1.7889 	 55.6756 	 32.2305 	 7.1273 	 2.3900
  0.3500 	 1.4200 	 10.1031 	 8.4098 	 1.5007 	 62.7971 	 1.7873 	 55.7637 	 31.6700 	 7.0334 	 2.3900
  0.3500 	 1.4250 	 10.1062 	 8.4085 	 1.4970 	 62.7884 	 1.7857 	 55.8513 	 31.1037 	 6.9370 	 2.3900
  0.3500 	 1.4300 	 10.1094 	 8.4072 	 1.4933 	 62.7767 	 1.7842 	 55.9385 	 30.5313 	 6.8382 	 2.3900
  0.3500 	 1.4350 	 10.1125 	 8.4059 	 1.4896 	 62.7620 	 1.7826 	 56.0253 	 29.9523 	 6.7368 	 2.3900
  0.3500 	 1.4400 	 10.1155 	 8.4047 	 1.4860 	 62.7442 	 1.7811 	 56.1116 	 29.3663 	 6.6326 	 2.3900
  0.3500 	 1.4450 	 10.1186 	 8.4034 	 1.4824 	 62.7230 	 1.7796 	 56.1974 	 28.7728 	 6.5256 	 2.3900
  0.3500 	 1.4500 	 10.1216 	 8.4021 	 1.4788 	 62.6984 	 1.7781 	 56.2828 	 28.1713 	 6.4156 	 2.3900
  0.3500 	 1.4550 	 10.1247 	 8.4009 	 1.4752 	 62.6702 	 1.7766 	 56.3677 	 27.5613 	 6.3025 	 2.3900
  0.3500 	 1.4600 	 10.1277 	 8.3996 	 1.4717 	 62.6382 	 1.7751 	 56.4522 	 26.9421 	 6.1860 	 2.3900
  0.3500 	 1.4650 	 10.1306 	 8.3984 	 1.4681 	 62.6024 	 1.7736 	 56.5363 	 26.3129 	 6.0661 	 2.3900
  0.3500 	 1.4700 	 10.1336 	 8.3972 	 1.4646 	 62.5624 	 1.7722 	 56.6199 	 25.6731 	 5.9425 	 2.3900
  0.3500 	 1.4750 	 10.1365 	 8.3959 	 1.4611 	 62.5181 	 1.7708 	 56.7031 	 25.0218 	 5.8150 	 2.3900
  0.3500 	 1.4800 	 10.1394 	 8.3947 	 1.4577 	 62.4692 	 1.7693 	 56.7859 	 24.3579 	 5.6833 	 2.3900
  0.3500 	 1.4850 	 10.1423 	 8.3935 	 1.4542 	 62.4154 	 1.7679 	 56.8682 	 23.6804 	 5.5472 	 2.3900
  0.3500 	 1.4900 	 10.1452 	 8.3923 	 1.4508 	 62.3564 	 1.7665 	 56.9501 	 22.9880 	 5.4063 	 2.3900
  0.3500 	 1.4950 	 10.1481 	 8.3911 	 1.4474 	 62.2918 	 1.7652 	 57.0316 	 22.2793 	 5.2602 	 2.3900
  0.3500 	 1.5000 	 10.1509 	 8.3900 	 1.4440 	 62.2211 	 1.7638 	 57.1127 	 21.5527 	 5.1084 	 2.3900
  0.3500 	 1.5050 	 10.1537 	 8.3888 	 1.4406 	 62.1440 	 1.7624 	 57.1933 	 20.8060 	 4.9506 	 2.3900
  0.3500 	 1.5100 	 10.1565 	 8.3876 	 1.4373 	 62.0597 	 1.7611 	 57.2736 	 20.0372 	 4.7861 	 2.3900
  0.3500 	 1.5150 	 10.1593 	 8.3865 	 1.4340 	 61.9675 	 1.7598 	 57.3534 	 19.2435 	 4.6141 	 2.3900
  0.3500 	 1.5200 	 10.1621 	 8.3854 	 1.4306 	 61.8667 	 1.7584 	 57.4329 	 18.4215 	 4.4339 	 2.3900
  0.3500 	 1.5250 	 10.1648 	 8.3842 	 1.4274 	 61.7562 	 1.7571 	 57.5119 	 17.5673 	 4.2443 	 2.3900
  0.3500 	 1.5300 	 10.1676 	 8.3831 	 1.4241 	 61.6347 	 1.7558 	 57.5905 	 16.6759 	 4.0442 	 2.3900
  0.3500 	 1.5350 	 10.1703 	 8.3820 	 1.4208 	 61.5005 	 1.7545 	 57.6687 	 15.7407 	 3.8317 	 2.3900
  0.3500 	 1.5400 	 10.1730 	 8.3809 	 1.4176 	 61.3514 	 1.7533 	 57.7466 	 14.7536 	 3.6048 	 2.3900
  0.3500 	 1.5450 	 10.1757 	 8.3798 	 1.4144 	 61.1846 	 1.7520 	 57.8240 	 13.7031 	 3.3606 	 2.3900
  0.3500 	 1.5500 	 10.1783 	 8.3787 	 1.4112 	 60.9960 	 1.7508 	 57.9011 	 12.5734 	 3.0949 	 2.3900
  0.3500 	 1.5550 	 10.1810 	 8.3776 	 1.4080 	 60.7795 	 1.7495 	 57.9777 	 11.3406 	 2.8017 	 2.3900
  0.3500 	 1.5600 	 10.1836 	 8.3765 	 1.4049 	 60.5253 	 1.7483 	 58.0540 	 9.9665 	 2.4712 	 2.3900
  0.3500 	 1.5650 	 10.1862 	 8.3754 	 1.4017 	 60.2158 	 1.7471 	 58.1299 	 8.3818 	 2.0858 	 2.3900
  0.3500 	 1.5700 	 10.1888 	 8.3743 	 1.3986 	 59.8120 	 1.7459 	 58.2054 	 6.4324 	 1.6065 	 2.3900
  0.3500 	 1.3800 	 10.0732 	 8.4400 	 1.5358 	 62.6769 	 1.8052 	 54.9838 	 35.9737 	 7.6931 	 2.4000
  0.3500 	 1.3850 	 10.0766 	 8.4386 	 1.5319 	 62.6891 	 1.8035 	 55.0753 	 35.4439 	 7.6137 	 2.4000
  0.3500 	 1.3900 	 10.0799 	 8.4372 	 1.5280 	 62.6989 	 1.8018 	 55.1664 	 34.9103 	 7.5325 	 2.4000
  0.3500 	 1.3950 	 10.0832 	 8.4358 	 1.5241 	 62.7062 	 1.8001 	 55.2570 	 34.3725 	 7.4492 	 2.4000
  0.3500 	 1.4000 	 10.0865 	 8.4344 	 1.5203 	 62.7111 	 1.7985 	 55.3471 	 33.8303 	 7.3640 	 2.4000
  0.3500 	 1.4050 	 10.0897 	 8.4330 	 1.5165 	 62.7133 	 1.7968 	 55.4367 	 33.2835 	 7.2766 	 2.4000
  0.3500 	 1.4100 	 10.0929 	 8.4317 	 1.5127 	 62.7129 	 1.7952 	 55.5259 	 32.7318 	 7.1870 	 2.4000
  0.3500 	 1.4150 	 10.0962 	 8.4304 	 1.5089 	 62.7098 	 1.7936 	 55.6145 	 32.1749 	 7.0953 	 2.4000
  0.3500 	 1.4200 	 10.0993 	 8.4290 	 1.5051 	 62.7039 	 1.7920 	 55.7027 	 31.6125 	 7.0011 	 2.4000
  0.3500 	 1.4250 	 10.1025 	 8.4277 	 1.5014 	 62.6951 	 1.7904 	 55.7905 	 31.0442 	 6.9046 	 2.4000
  0.3500 	 1.4300 	 10.1056 	 8.4264 	 1.4977 	 62.6833 	 1.7888 	 55.8778 	 30.4697 	 6.8055 	 2.4000
  0.3500 	 1.4350 	 10.1087 	 8.4251 	 1.4940 	 62.6685 	 1.7873 	 55.9646 	 29.8885 	 6.7038 	 2.4000
  0.3500 	 1.4400 	 10.1118 	 8.4238 	 1.4904 	 62.6504 	 1.7857 	 56.0510 	 29.3002 	 6.5994 	 2.4000
  0.3500 	 1.4450 	 10.1149 	 8.4225 	 1.4867 	 62.6290 	 1.7842 	 56.1369 	 28.7043 	 6.4921 	 2.4000
  0.3500 	 1.4500 	 10.1180 	 8.4212 	 1.4831 	 62.6042 	 1.7827 	 56.2224 	 28.1003 	 6.3818 	 2.4000
  0.3500 	 1.4550 	 10.1210 	 8.4200 	 1.4795 	 62.5758 	 1.7812 	 56.3074 	 27.4877 	 6.2684 	 2.4000
  0.3500 	 1.4600 	 10.1240 	 8.4187 	 1.4760 	 62.5436 	 1.7797 	 56.3920 	 26.8657 	 6.1516 	 2.4000
  0.3500 	 1.4650 	 10.1270 	 8.4175 	 1.4724 	 62.5074 	 1.7782 	 56.4762 	 26.2336 	 6.0313 	 2.4000
  0.3500 	 1.4700 	 10.1300 	 8.4162 	 1.4689 	 62.4671 	 1.7768 	 56.5599 	 25.5907 	 5.9073 	 2.4000
  0.3500 	 1.4750 	 10.1329 	 8.4150 	 1.4654 	 62.4224 	 1.7753 	 56.6432 	 24.9361 	 5.7793 	 2.4000
  0.3500 	 1.4800 	 10.1358 	 8.4138 	 1.4619 	 62.3731 	 1.7739 	 56.7260 	 24.2687 	 5.6471 	 2.4000
  0.3500 	 1.4850 	 10.1388 	 8.4126 	 1.4585 	 62.3188 	 1.7725 	 56.8085 	 23.5874 	 5.5104 	 2.4000
  0.3500 	 1.4900 	 10.1416 	 8.4114 	 1.4550 	 62.2593 	 1.7711 	 56.8905 	 22.8910 	 5.3688 	 2.4000
  0.3500 	 1.4950 	 10.1445 	 8.4102 	 1.4516 	 62.1941 	 1.7697 	 56.9720 	 22.1780 	 5.2220 	 2.4000
  0.3500 	 1.5000 	 10.1474 	 8.4090 	 1.4482 	 62.1227 	 1.7683 	 57.0532 	 21.4466 	 5.0695 	 2.4000
  0.3500 	 1.5050 	 10.1502 	 8.4078 	 1.4449 	 62.0448 	 1.7670 	 57.1340 	 20.6948 	 4.9108 	 2.4000
  0.3500 	 1.5100 	 10.1530 	 8.4067 	 1.4415 	 61.9596 	 1.7656 	 57.2143 	 19.9204 	 4.7453 	 2.4000
  0.3500 	 1.5150 	 10.1558 	 8.4055 	 1.4382 	 61.8665 	 1.7643 	 57.2942 	 19.1204 	 4.5722 	 2.4000
  0.3500 	 1.5200 	 10.1586 	 8.4044 	 1.4348 	 61.7645 	 1.7629 	 57.3738 	 18.2914 	 4.3907 	 2.4000
  0.3500 	 1.5250 	 10.1613 	 8.4032 	 1.4315 	 61.6525 	 1.7616 	 57.4529 	 17.4293 	 4.1997 	 2.4000
  0.3500 	 1.5300 	 10.1641 	 8.4021 	 1.4283 	 61.5293 	 1.7603 	 57.5316 	 16.5288 	 3.9977 	 2.4000
  0.3500 	 1.5350 	 10.1668 	 8.4010 	 1.4250 	 61.3931 	 1.7590 	 57.6099 	 15.5832 	 3.7832 	 2.4000
  0.3500 	 1.5400 	 10.1695 	 8.3998 	 1.4218 	 61.2416 	 1.7578 	 57.6879 	 14.5836 	 3.5537 	 2.4000
  0.3500 	 1.5450 	 10.1722 	 8.3987 	 1.4185 	 61.0717 	 1.7565 	 57.7654 	 13.5180 	 3.3063 	 2.4000
  0.3500 	 1.5500 	 10.1749 	 8.3976 	 1.4153 	 60.8790 	 1.7552 	 57.8425 	 12.3693 	 3.0365 	 2.4000
  0.3500 	 1.5550 	 10.1775 	 8.3965 	 1.4122 	 60.6571 	 1.7540 	 57.9193 	 11.1115 	 2.7378 	 2.4000
  0.3500 	 1.5600 	 10.1802 	 8.3954 	 1.4090 	 60.3950 	 1.7528 	 57.9957 	 9.7024 	 2.3993 	 2.4000
  0.3500 	 1.5650 	 10.1828 	 8.3944 	 1.4058 	 60.0728 	 1.7515 	 58.0717 	 8.0628 	 2.0011 	 2.4000
  0.3500 	 1.5700 	 10.1854 	 8.3933 	 1.4027 	 59.6435 	 1.7503 	 58.1473 	 6.0067 	 1.4962 	 2.4000
  0.3600 	 1.3950 	 10.1214 	 8.2422 	 1.4749 	 64.0457 	 1.7527 	 55.8794 	 35.5883 	 8.1663 	 2.3000
  0.3600 	 1.4000 	 10.1245 	 8.2409 	 1.4712 	 64.0546 	 1.7511 	 55.9685 	 35.0874 	 8.0861 	 2.3000
  0.3600 	 1.4050 	 10.1276 	 8.2397 	 1.4675 	 64.0612 	 1.7496 	 56.0572 	 34.5830 	 8.0040 	 2.3000
  0.3600 	 1.4100 	 10.1307 	 8.2384 	 1.4638 	 64.0655 	 1.7480 	 56.1454 	 34.0751 	 7.9201 	 2.3000
  0.3600 	 1.4150 	 10.1338 	 8.2372 	 1.4602 	 64.0673 	 1.7465 	 56.2331 	 33.5634 	 7.8342 	 2.3000
  0.3600 	 1.4200 	 10.1369 	 8.2359 	 1.4565 	 64.0667 	 1.7450 	 56.3204 	 33.0476 	 7.7463 	 2.3000
  0.3600 	 1.4250 	 10.1399 	 8.2347 	 1.4529 	 64.0635 	 1.7435 	 56.4072 	 32.5277 	 7.6563 	 2.3000
  0.3600 	 1.4300 	 10.1429 	 8.2335 	 1.4493 	 64.0577 	 1.7420 	 56.4935 	 32.0032 	 7.5642 	 2.3000
  0.3600 	 1.4350 	 10.1459 	 8.2323 	 1.4458 	 64.0493 	 1.7406 	 56.5794 	 31.4740 	 7.4699 	 2.3000
  0.3600 	 1.4400 	 10.1488 	 8.2311 	 1.4422 	 64.0381 	 1.7391 	 56.6648 	 30.9397 	 7.3733 	 2.3000
  0.3600 	 1.4450 	 10.1518 	 8.2299 	 1.4387 	 64.0241 	 1.7377 	 56.7498 	 30.4001 	 7.2743 	 2.3000
  0.3600 	 1.4500 	 10.1547 	 8.2287 	 1.4352 	 64.0072 	 1.7362 	 56.8343 	 29.8549 	 7.1729 	 2.3000
  0.3600 	 1.4550 	 10.1576 	 8.2275 	 1.4318 	 63.9873 	 1.7348 	 56.9184 	 29.3035 	 7.0689 	 2.3000
  0.3600 	 1.4600 	 10.1605 	 8.2263 	 1.4283 	 63.9642 	 1.7334 	 57.0020 	 28.7458 	 6.9622 	 2.3000
  0.3600 	 1.4650 	 10.1634 	 8.2252 	 1.4249 	 63.9379 	 1.7320 	 57.0852 	 28.1811 	 6.8527 	 2.3000
  0.3600 	 1.4700 	 10.1662 	 8.2240 	 1.4215 	 63.9083 	 1.7307 	 57.1680 	 27.6092 	 6.7403 	 2.3000
  0.3600 	 1.4750 	 10.1690 	 8.2229 	 1.4181 	 63.8751 	 1.7293 	 57.2503 	 27.0294 	 6.6248 	 2.3000
  0.3600 	 1.4800 	 10.1719 	 8.2217 	 1.4147 	 63.8383 	 1.7280 	 57.3322 	 26.4413 	 6.5061 	 2.3000
  0.3600 	 1.4850 	 10.1746 	 8.2206 	 1.4114 	 63.7977 	 1.7266 	 57.4137 	 25.8441 	 6.3840 	 2.3000
  0.3600 	 1.4900 	 10.1774 	 8.2195 	 1.4081 	 63.7530 	 1.7253 	 57.4948 	 25.2372 	 6.2583 	 2.3000
  0.3600 	 1.4950 	 10.1802 	 8.2184 	 1.4047 	 63.7042 	 1.7240 	 57.5754 	 24.6198 	 6.1287 	 2.3000
  0.3600 	 1.5000 	 10.1829 	 8.2173 	 1.4015 	 63.6508 	 1.7227 	 57.6556 	 23.9912 	 5.9952 	 2.3000
  0.3600 	 1.5050 	 10.1856 	 8.2162 	 1.3982 	 63.5927 	 1.7214 	 57.7355 	 23.3503 	 5.8573 	 2.3000
  0.3600 	 1.5100 	 10.1883 	 8.2151 	 1.3949 	 63.5296 	 1.7201 	 57.8148 	 22.6960 	 5.7148 	 2.3000
  0.3600 	 1.5150 	 10.1910 	 8.2140 	 1.3917 	 63.4611 	 1.7189 	 57.8938 	 22.0271 	 5.5673 	 2.3000
  0.3600 	 1.5200 	 10.1936 	 8.2129 	 1.3885 	 63.3868 	 1.7176 	 57.9724 	 21.3421 	 5.4144 	 2.3000
  0.3600 	 1.5250 	 10.1963 	 8.2118 	 1.3853 	 63.3063 	 1.7164 	 58.0506 	 20.6395 	 5.2557 	 2.3000
  0.3600 	 1.5300 	 10.1989 	 8.2108 	 1.3821 	 63.2190 	 1.7151 	 58.1284 	 19.9173 	 5.0906 	 2.3000
  0.3600 	 1.5350 	 10.2015 	 8.2097 	 1.3790 	 63.1243 	 1.7139 	 58.2058 	 19.1732 	 4.9186 	 2.3000
  0.3600 	 1.5400 	 10.2041 	 8.2087 	 1.3758 	 63.0215 	 1.7127 	 58.2828 	 18.4046 	 4.7387 	 2.3000
  0.3600 	 1.5450 	 10.2067 	 8.2077 	 1.3727 	 62.9096 	 1.7115 	 58.3594 	 17.6081 	 4.5502 	 2.3000
  0.3600 	 1.5500 	 10.2093 	 8.2066 	 1.3696 	 62.7875 	 1.7103 	 58.4356 	 16.7798 	 4.3519 	 2.3000
  0.3600 	 1.5550 	 10.2118 	 8.2056 	 1.3665 	 62.6538 	 1.7092 	 58.5114 	 15.9145 	 4.1424 	 2.3000
  0.3600 	 1.5600 	 10.2143 	 8.2046 	 1.3635 	 62.5068 	 1.7080 	 58.5868 	 15.0059 	 3.9199 	 2.3000
  0.3600 	 1.5650 	 10.2168 	 8.2036 	 1.3604 	 62.3441 	 1.7069 	 58.6619 	 14.0454 	 3.6822 	 2.3000
  0.3600 	 1.5700 	 10.2193 	 8.2026 	 1.3574 	 62.1625 	 1.7057 	 58.7366 	 13.0216 	 3.4259 	 2.3000
  0.3600 	 1.5750 	 10.2218 	 8.2016 	 1.3544 	 61.9575 	 1.7046 	 58.8109 	 11.9180 	 3.1467 	 2.3000
  0.3600 	 1.5800 	 10.2243 	 8.2006 	 1.3514 	 61.7225 	 1.7035 	 58.8848 	 10.7100 	 2.8376 	 2.3000
  0.3600 	 1.5850 	 10.2267 	 8.1996 	 1.3484 	 61.4462 	 1.7023 	 58.9584 	 9.3570 	 2.4878 	 2.3000
  0.3600 	 1.5900 	 10.2291 	 8.1986 	 1.3454 	 61.1083 	 1.7012 	 59.0316 	 7.7837 	 2.0767 	 2.3000
  0.3600 	 1.5950 	 10.2316 	 8.1977 	 1.3425 	 60.6609 	 1.7001 	 59.1044 	 5.8137 	 1.5565 	 2.3000
  0.3600 	 1.3950 	 10.1176 	 8.2617 	 1.4794 	 63.9486 	 1.7575 	 55.8163 	 35.5442 	 8.1323 	 2.3100
  0.3600 	 1.4000 	 10.1207 	 8.2604 	 1.4757 	 63.9575 	 1.7559 	 55.9055 	 35.0417 	 8.0520 	 2.3100
  0.3600 	 1.4050 	 10.1239 	 8.2592 	 1.4720 	 63.9641 	 1.7543 	 55.9943 	 34.5358 	 7.9698 	 2.3100
  0.3600 	 1.4100 	 10.1270 	 8.2579 	 1.4683 	 63.9683 	 1.7528 	 56.0826 	 34.0262 	 7.8857 	 2.3100
  0.3600 	 1.4150 	 10.1300 	 8.2566 	 1.4646 	 63.9701 	 1.7512 	 56.1704 	 33.5128 	 7.7997 	 2.3100
  0.3600 	 1.4200 	 10.1331 	 8.2554 	 1.4610 	 63.9694 	 1.7497 	 56.2578 	 32.9954 	 7.7116 	 2.3100
  0.3600 	 1.4250 	 10.1361 	 8.2541 	 1.4574 	 63.9661 	 1.7482 	 56.3447 	 32.4736 	 7.6215 	 2.3100
  0.3600 	 1.4300 	 10.1392 	 8.2529 	 1.4538 	 63.9603 	 1.7467 	 56.4311 	 31.9473 	 7.5292 	 2.3100
  0.3600 	 1.4350 	 10.1422 	 8.2517 	 1.4502 	 63.9517 	 1.7452 	 56.5171 	 31.4162 	 7.4347 	 2.3100
  0.3600 	 1.4400 	 10.1451 	 8.2505 	 1.4467 	 63.9404 	 1.7438 	 56.6026 	 30.8800 	 7.3378 	 2.3100
  0.3600 	 1.4450 	 10.1481 	 8.2493 	 1.4431 	 63.9263 	 1.7423 	 56.6877 	 30.3383 	 7.2386 	 2.3100
  0.3600 	 1.4500 	 10.1510 	 8.2481 	 1.4396 	 63.9092 	 1.7409 	 56.7723 	 29.7909 	 7.1369 	 2.3100
  0.3600 	 1.4550 	 10.1540 	 8.2469 	 1.4361 	 63.8891 	 1.7395 	 56.8565 	 29.2374 	 7.0327 	 2.3100
  0.3600 	 1.4600 	 10.1569 	 8.2457 	 1.4327 	 63.8659 	 1.7381 	 56.9402 	 28.6773 	 6.9257 	 2.3100
  0.3600 	 1.4650 	 10.1597 	 8.2445 	 1.4292 	 63.8394 	 1.7367 	 57.0235 	 28.1103 	 6.8159 	 2.3100
  0.3600 	 1.4700 	 10.1626 	 8.2434 	 1.4258 	 63.8095 	 1.7353 	 57.1064 	 27.5359 	 6.7031 	 2.3100
  0.3600 	 1.4750 	 10.1654 	 8.2422 	 1.4224 	 63.7761 	 1.7339 	 57.1888 	 26.9534 	 6.5873 	 2.3100
  0.3600 	 1.4800 	 10.1683 	 8.2411 	 1.4190 	 63.7390 	 1.7326 	 57.2708 	 26.3625 	 6.4682 	 2.3100
  0.3600 	 1.4850 	 10.1711 	 8.2399 	 1.4157 	 63.6980 	 1.7312 	 57.3524 	 25.7624 	 6.3457 	 2.3100
  0.3600 	 1.4900 	 10.1738 	 8.2388 	 1.4123 	 63.6530 	 1.7299 	 57.4335 	 25.1524 	 6.2195 	 2.3100
  0.3600 	 1.4950 	 10.1766 	 8.2377 	 1.4090 	 63.6037 	 1.7286 	 57.5143 	 24.5318 	 6.0895 	 2.3100
  0.3600 	 1.5000 	 10.1793 	 8.2366 	 1.4057 	 63.5499 	 1.7273 	 57.5946 	 23.8997 	 5.9553 	 2.3100
  0.3600 	 1.5050 	 10.1821 	 8.2355 	 1.4025 	 63.4914 	 1.7260 	 57.6745 	 23.2550 	 5.8168 	 2.3100
  0.3600 	 1.5100 	 10.1848 	 8.2344 	 1.3992 	 63.4277 	 1.7247 	 57.7540 	 22.5967 	 5.6737 	 2.3100
  0.3600 	 1.5150 	 10.1875 	 8.2333 	 1.3959 	 63.3585 	 1.7234 	 57.8331 	 21.9236 	 5.5254 	 2.3100
  0.3600 	 1.5200 	 10.1901 	 8.2322 	 1.3927 	 63.2835 	 1.7222 	 57.9118 	 21.2340 	 5.3718 	 2.3100
  0.3600 	 1.5250 	 10.1928 	 8.2311 	 1.3895 	 63.2022 	 1.7209 	 57.9900 	 20.5264 	 5.2122 	 2.3100
  0.3600 	 1.5300 	 10.1954 	 8.2301 	 1.3863 	 63.1140 	 1.7197 	 58.0679 	 19.7987 	 5.0461 	 2.3100
  0.3600 	 1.5350 	 10.1981 	 8.2290 	 1.3832 	 63.0182 	 1.7185 	 58.1454 	 19.0486 	 4.8728 	 2.3100
  0.3600 	 1.5400 	 10.2007 	 8.2279 	 1.3800 	 62.9142 	 1.7172 	 58.2225 	 18.2733 	 4.6917 	 2.3100
  0.3600 	 1.5450 	 10.2032 	 8.2269 	 1.3769 	 62.8009 	 1.7160 	 58.2992 	 17.4693 	 4.5017 	 2.3100
  0.3600 	 1.5500 	 10.2058 	 8.2259 	 1.3738 	 62.6771 	 1.7149 	 58.3755 	 16.6325 	 4.3016 	 2.3100
  0.3600 	 1.5550 	 10.2084 	 8.2248 	 1.3707 	 62.5415 	 1.7137 	 58.4514 	 15.7575 	 4.0900 	 2.3100
  0.3600 	 1.5600 	 10.2109 	 8.2238 	 1.3676 	 62.3921 	 1.7125 	 58.5270 	 14.8375 	 3.8651 	 2.3100
  0.3600 	 1.5650 	 10.2134 	 8.2228 	 1.3646 	 62.2264 	 1.7113 	 58.6021 	 13.8635 	 3.6243 	 2.3100
  0.3600 	 1.5700 	 10.2159 	 8.2218 	 1.3615 	 62.0412 	 1.7102 	 58.6769 	 12.8232 	 3.3643 	 2.3100
  0.3600 	 1.5750 	 10.2184 	 8.2208 	 1.3585 	 61.8314 	 1.7091 	 58.7513 	 11.6988 	 3.0801 	 2.3100
  0.3600 	 1.5800 	 10.2209 	 8.2198 	 1.3555 	 61.5898 	 1.7079 	 58.8253 	 10.4630 	 2.7645 	 2.3100
  0.3600 	 1.5850 	 10.2234 	 8.2188 	 1.3525 	 61.3039 	 1.7068 	 58.8990 	 9.0705 	 2.4050 	 2.3100
  0.3600 	 1.5900 	 10.2258 	 8.2178 	 1.3495 	 60.9500 	 1.7057 	 58.9723 	 7.4334 	 1.9778 	 2.3100
  0.3600 	 1.5950 	 10.2282 	 8.2168 	 1.3466 	 60.4685 	 1.7046 	 59.0452 	 5.3311 	 1.4233 	 2.3100
  0.3600 	 1.3950 	 10.1138 	 8.2812 	 1.4839 	 63.8520 	 1.7622 	 55.7534 	 35.5000 	 8.0986 	 2.3200
  0.3600 	 1.4000 	 10.1169 	 8.2799 	 1.4802 	 63.8609 	 1.7606 	 55.8427 	 34.9960 	 8.0181 	 2.3200
  0.3600 	 1.4050 	 10.1201 	 8.2786 	 1.4765 	 63.8674 	 1.7591 	 55.9316 	 34.4885 	 7.9358 	 2.3200
  0.3600 	 1.4100 	 10.1232 	 8.2773 	 1.4728 	 63.8715 	 1.7575 	 56.0200 	 33.9773 	 7.8515 	 2.3200
  0.3600 	 1.4150 	 10.1263 	 8.2760 	 1.4691 	 63.8733 	 1.7560 	 56.1079 	 33.4622 	 7.7653 	 2.3200
  0.3600 	 1.4200 	 10.1294 	 8.2748 	 1.4654 	 63.8725 	 1.7544 	 56.1954 	 32.9431 	 7.6771 	 2.3200
  0.3600 	 1.4250 	 10.1324 	 8.2735 	 1.4618 	 63.8692 	 1.7529 	 56.2824 	 32.4195 	 7.5868 	 2.3200
  0.3600 	 1.4300 	 10.1354 	 8.2723 	 1.4582 	 63.8632 	 1.7514 	 56.3689 	 31.8914 	 7.4943 	 2.3200
  0.3600 	 1.4350 	 10.1385 	 8.2711 	 1.4546 	 63.8546 	 1.7499 	 56.4550 	 31.3584 	 7.3996 	 2.3200
  0.3600 	 1.4400 	 10.1414 	 8.2698 	 1.4511 	 63.8432 	 1.7485 	 56.5406 	 30.8202 	 7.3026 	 2.3200
  0.3600 	 1.4450 	 10.1444 	 8.2686 	 1.4475 	 63.8289 	 1.7470 	 56.6257 	 30.2765 	 7.2031 	 2.3200
  0.3600 	 1.4500 	 10.1474 	 8.2674 	 1.4440 	 63.8117 	 1.7456 	 56.7105 	 29.7270 	 7.1012 	 2.3200
  0.3600 	 1.4550 	 10.1503 	 8.2662 	 1.4405 	 63.7914 	 1.7441 	 56.7947 	 29.1712 	 6.9967 	 2.3200
  0.3600 	 1.4600 	 10.1532 	 8.2650 	 1.4370 	 63.7680 	 1.7427 	 56.8786 	 28.6089 	 6.8894 	 2.3200
  0.3600 	 1.4650 	 10.1561 	 8.2639 	 1.4336 	 63.7413 	 1.7413 	 56.9620 	 28.0394 	 6.7793 	 2.3200
  0.3600 	 1.4700 	 10.1590 	 8.2627 	 1.4302 	 63.7111 	 1.7399 	 57.0449 	 27.4624 	 6.6662 	 2.3200
  0.3600 	 1.4750 	 10.1618 	 8.2615 	 1.4267 	 63.6775 	 1.7385 	 57.1275 	 26.8773 	 6.5500 	 2.3200
  0.3600 	 1.4800 	 10.1647 	 8.2604 	 1.4234 	 63.6401 	 1.7372 	 57.2096 	 26.2836 	 6.4305 	 2.3200
  0.3600 	 1.4850 	 10.1675 	 8.2592 	 1.4200 	 63.5988 	 1.7358 	 57.2912 	 25.6806 	 6.3075 	 2.3200
  0.3600 	 1.4900 	 10.1703 	 8.2581 	 1.4166 	 63.5534 	 1.7345 	 57.3725 	 25.0675 	 6.1809 	 2.3200
  0.3600 	 1.4950 	 10.1730 	 8.2570 	 1.4133 	 63.5037 	 1.7332 	 57.4533 	 24.4436 	 6.0504 	 2.3200
  0.3600 	 1.5000 	 10.1758 	 8.2559 	 1.4100 	 63.4495 	 1.7319 	 57.5337 	 23.8079 	 5.9157 	 2.3200
  0.3600 	 1.5050 	 10.1785 	 8.2547 	 1.4067 	 63.3904 	 1.7306 	 57.6137 	 23.1595 	 5.7766 	 2.3200
  0.3600 	 1.5100 	 10.1812 	 8.2536 	 1.4034 	 63.3261 	 1.7293 	 57.6933 	 22.4973 	 5.6328 	 2.3200
  0.3600 	 1.5150 	 10.1840 	 8.2525 	 1.4002 	 63.2563 	 1.7280 	 57.7725 	 21.8198 	 5.4838 	 2.3200
  0.3600 	 1.5200 	 10.1866 	 8.2515 	 1.3970 	 63.1806 	 1.7267 	 57.8513 	 21.1255 	 5.3293 	 2.3200
  0.3600 	 1.5250 	 10.1893 	 8.2504 	 1.3937 	 63.0984 	 1.7255 	 57.9297 	 20.4128 	 5.1688 	 2.3200
  0.3600 	 1.5300 	 10.1920 	 8.2493 	 1.3905 	 63.0093 	 1.7242 	 58.0076 	 19.6796 	 5.0016 	 2.3200
  0.3600 	 1.5350 	 10.1946 	 8.2482 	 1.3874 	 62.9125 	 1.7230 	 58.0852 	 18.9234 	 4.8272 	 2.3200
  0.3600 	 1.5400 	 10.1972 	 8.2472 	 1.3842 	 62.8071 	 1.7218 	 58.1624 	 18.1412 	 4.6447 	 2.3200
  0.3600 	 1.5450 	 10.1998 	 8.2461 	 1.3811 	 62.6924 	 1.7206 	 58.2392 	 17.3296 	 4.4532 	 2.3200
  0.3600 	 1.5500 	 10.2024 	 8.2451 	 1.3779 	 62.5669 	 1.7194 	 58.3156 	 16.4841 	 4.2513 	 2.3200
  0.3600 	 1.5550 	 10.2049 	 8.2440 	 1.3748 	 62.4293 	 1.7182 	 58.3916 	 15.5991 	 4.0377 	 2.3200
  0.3600 	 1.5600 	 10.2075 	 8.2430 	 1.3718 	 62.2774 	 1.7170 	 58.4672 	 14.6675 	 3.8102 	 2.3200
  0.3600 	 1.5650 	 10.2100 	 8.2420 	 1.3687 	 62.1088 	 1.7158 	 58.5425 	 13.6795 	 3.5663 	 2.3200
  0.3600 	 1.5700 	 10.2125 	 8.2410 	 1.3656 	 61.9197 	 1.7147 	 58.6174 	 12.6220 	 3.3023 	 2.3200
  0.3600 	 1.5750 	 10.2150 	 8.2400 	 1.3626 	 61.7049 	 1.7135 	 58.6919 	 11.4757 	 3.0130 	 2.3200
  0.3600 	 1.5800 	 10.2175 	 8.2389 	 1.3596 	 61.4563 	 1.7124 	 58.7660 	 10.2105 	 2.6903 	 2.3200
  0.3600 	 1.5850 	 10.2200 	 8.2380 	 1.3566 	 61.1600 	 1.7113 	 58.8397 	 8.7752 	 2.3202 	 2.3200
  0.3600 	 1.5900 	 10.2224 	 8.2370 	 1.3536 	 60.7881 	 1.7101 	 58.9131 	 7.0666 	 1.8750 	 2.3200
  0.3600 	 1.3900 	 10.1067 	 8.3019 	 1.4922 	 63.7446 	 1.7686 	 55.6008 	 35.9580 	 8.1438 	 2.3300
  0.3600 	 1.3950 	 10.1099 	 8.3006 	 1.4885 	 63.7557 	 1.7670 	 55.6907 	 35.4558 	 8.0651 	 2.3300
  0.3600 	 1.4000 	 10.1131 	 8.2993 	 1.4847 	 63.7646 	 1.7654 	 55.7801 	 34.9503 	 7.9845 	 2.3300
  0.3600 	 1.4050 	 10.1163 	 8.2980 	 1.4810 	 63.7711 	 1.7638 	 55.8691 	 34.4412 	 7.9020 	 2.3300
  0.3600 	 1.4100 	 10.1194 	 8.2967 	 1.4773 	 63.7752 	 1.7622 	 55.9576 	 33.9284 	 7.8176 	 2.3300
  0.3600 	 1.4150 	 10.1225 	 8.2954 	 1.4736 	 63.7769 	 1.7607 	 56.0456 	 33.4117 	 7.7313 	 2.3300
  0.3600 	 1.4200 	 10.1256 	 8.2942 	 1.4699 	 63.7760 	 1.7591 	 56.1331 	 32.8908 	 7.6429 	 2.3300
  0.3600 	 1.4250 	 10.1287 	 8.2929 	 1.4663 	 63.7726 	 1.7576 	 56.2202 	 32.3654 	 7.5524 	 2.3300
  0.3600 	 1.4300 	 10.1317 	 8.2917 	 1.4626 	 63.7666 	 1.7561 	 56.3069 	 31.8355 	 7.4597 	 2.3300
  0.3600 	 1.4350 	 10.1347 	 8.2904 	 1.4590 	 63.7578 	 1.7546 	 56.3930 	 31.3006 	 7.3648 	 2.3300
  0.3600 	 1.4400 	 10.1377 	 8.2892 	 1.4555 	 63.7463 	 1.7531 	 56.4787 	 30.7604 	 7.2675 	 2.3300
  0.3600 	 1.4450 	 10.1407 	 8.2880 	 1.4519 	 63.7319 	 1.7517 	 56.5640 	 30.2146 	 7.1679 	 2.3300
  0.3600 	 1.4500 	 10.1437 	 8.2868 	 1.4484 	 63.7145 	 1.7502 	 56.6488 	 29.6630 	 7.0657 	 2.3300
  0.3600 	 1.4550 	 10.1466 	 8.2856 	 1.4449 	 63.6941 	 1.7488 	 56.7332 	 29.1050 	 6.9609 	 2.3300
  0.3600 	 1.4600 	 10.1496 	 8.2844 	 1.4414 	 63.6705 	 1.7474 	 56.8171 	 28.5403 	 6.8533 	 2.3300
  0.3600 	 1.4650 	 10.1525 	 8.2832 	 1.4379 	 63.6435 	 1.7459 	 56.9006 	 27.9684 	 6.7429 	 2.3300
  0.3600 	 1.4700 	 10.1553 	 8.2820 	 1.4345 	 63.6132 	 1.7445 	 56.9837 	 27.3889 	 6.6295 	 2.3300
  0.3600 	 1.4750 	 10.1582 	 8.2808 	 1.4311 	 63.5792 	 1.7432 	 57.0663 	 26.8012 	 6.5129 	 2.3300
  0.3600 	 1.4800 	 10.1611 	 8.2797 	 1.4277 	 63.5415 	 1.7418 	 57.1485 	 26.2046 	 6.3930 	 2.3300
  0.3600 	 1.4850 	 10.1639 	 8.2785 	 1.4243 	 63.4999 	 1.7404 	 57.2303 	 25.5986 	 6.2696 	 2.3300
  0.3600 	 1.4900 	 10.1667 	 8.2774 	 1.4209 	 63.4542 	 1.7391 	 57.3116 	 24.9824 	 6.1425 	 2.3300
  0.3600 	 1.4950 	 10.1695 	 8.2762 	 1.4176 	 63.4041 	 1.7378 	 57.3926 	 24.3552 	 6.0115 	 2.3300
  0.3600 	 1.5000 	 10.1722 	 8.2751 	 1.4143 	 63.3493 	 1.7364 	 57.4731 	 23.7160 	 5.8763 	 2.3300
  0.3600 	 1.5050 	 10.1750 	 8.2740 	 1.4110 	 63.2897 	 1.7351 	 57.5532 	 23.0638 	 5.7366 	 2.3300
  0.3600 	 1.5100 	 10.1777 	 8.2729 	 1.4077 	 63.2249 	 1.7338 	 57.6328 	 22.3975 	 5.5920 	 2.3300
  0.3600 	 1.5150 	 10.1804 	 8.2718 	 1.4044 	 63.1544 	 1.7325 	 57.7121 	 21.7156 	 5.4423 	 2.3300
  0.3600 	 1.5200 	 10.1831 	 8.2707 	 1.4012 	 63.0780 	 1.7313 	 57.7910 	 21.0167 	 5.2870 	 2.3300
  0.3600 	 1.5250 	 10.1858 	 8.2696 	 1.3980 	 62.9950 	 1.7300 	 57.8695 	 20.2988 	 5.1255 	 2.3300
  0.3600 	 1.5300 	 10.1885 	 8.2685 	 1.3947 	 62.9049 	 1.7288 	 57.9475 	 19.5600 	 4.9573 	 2.3300
  0.3600 	 1.5350 	 10.1911 	 8.2674 	 1.3916 	 62.8070 	 1.7275 	 58.0252 	 18.7975 	 4.7818 	 2.3300
  0.3600 	 1.5400 	 10.1937 	 8.2664 	 1.3884 	 62.7004 	 1.7263 	 58.1025 	 18.0085 	 4.5979 	 2.3300
  0.3600 	 1.5450 	 10.1963 	 8.2653 	 1.3852 	 62.5841 	 1.7251 	 58.1794 	 17.1891 	 4.4048 	 2.3300
  0.3600 	 1.5500 	 10.1989 	 8.2642 	 1.3821 	 62.4569 	 1.7239 	 58.2559 	 16.3347 	 4.2011 	 2.3300
  0.3600 	 1.5550 	 10.2015 	 8.2632 	 1.3790 	 62.3172 	 1.7227 	 58.3320 	 15.4395 	 3.9852 	 2.3300
  0.3600 	 1.5600 	 10.2041 	 8.2622 	 1.3759 	 62.1628 	 1.7215 	 58.4077 	 14.4958 	 3.7551 	 2.3300
  0.3600 	 1.5650 	 10.2066 	 8.2611 	 1.3728 	 61.9911 	 1.7203 	 58.4830 	 13.4934 	 3.5080 	 2.3300
  0.3600 	 1.5700 	 10.2091 	 8.2601 	 1.3698 	 61.7980 	 1.7191 	 58.5580 	 12.4180 	 3.2399 	 2.3300
  0.3600 	 1.5750 	 10.2117 	 8.2591 	 1.3667 	 61.5779 	 1.7180 	 58.6326 	 11.2486 	 2.9453 	 2.3300
  0.3600 	 1.5800 	 10.2141 	 8.2581 	 1.3637 	 61.3218 	 1.7168 	 58.7068 	 9.9521 	 2.6150 	 2.3300
  0.3600 	 1.5850 	 10.2166 	 8.2571 	 1.3607 	 61.0141 	 1.7157 	 58.7807 	 8.4702 	 2.2334 	 2.3300
  0.3600 	 1.5900 	 10.2191 	 8.2561 	 1.3577 	 60.6218 	 1.7146 	 58.8541 	 6.6803 	 1.7676 	 2.3300
  0.3600 	 1.3900 	 10.1029 	 8.3213 	 1.4968 	 63.6488 	 1.7734 	 55.5382 	 35.9153 	 8.1106 	 2.3400
  0.3600 	 1.3950 	 10.1061 	 8.3200 	 1.4930 	 63.6599 	 1.7717 	 55.6282 	 35.4116 	 8.0317 	 2.3400
  0.3600 	 1.4000 	 10.1093 	 8.3187 	 1.4892 	 63.6687 	 1.7701 	 55.7177 	 34.9045 	 7.9510 	 2.3400
  0.3600 	 1.4050 	 10.1125 	 8.3174 	 1.4855 	 63.6752 	 1.7685 	 55.8068 	 34.3939 	 7.8684 	 2.3400
  0.3600 	 1.4100 	 10.1156 	 8.3161 	 1.4817 	 63.6792 	 1.7670 	 55.8954 	 33.8794 	 7.7839 	 2.3400
  0.3600 	 1.4150 	 10.1187 	 8.3148 	 1.4780 	 63.6808 	 1.7654 	 55.9835 	 33.3610 	 7.6974 	 2.3400
  0.3600 	 1.4200 	 10.1218 	 8.3135 	 1.4744 	 63.6799 	 1.7638 	 56.0711 	 32.8384 	 7.6088 	 2.3400
  0.3600 	 1.4250 	 10.1249 	 8.3123 	 1.4707 	 63.6765 	 1.7623 	 56.1583 	 32.3113 	 7.5182 	 2.3400
  0.3600 	 1.4300 	 10.1280 	 8.3110 	 1.4671 	 63.6703 	 1.7608 	 56.2450 	 31.7795 	 7.4253 	 2.3400
  0.3600 	 1.4350 	 10.1310 	 8.3098 	 1.4635 	 63.6615 	 1.7593 	 56.3313 	 31.2427 	 7.3302 	 2.3400
  0.3600 	 1.4400 	 10.1340 	 8.3085 	 1.4599 	 63.6498 	 1.7578 	 56.4171 	 30.7005 	 7.2327 	 2.3400
  0.3600 	 1.4450 	 10.1370 	 8.3073 	 1.4563 	 63.6353 	 1.7563 	 56.5025 	 30.1527 	 7.1328 	 2.3400
  0.3600 	 1.4500 	 10.1400 	 8.3061 	 1.4528 	 63.6178 	 1.7549 	 56.5874 	 29.5989 	 7.0304 	 2.3400
  0.3600 	 1.4550 	 10.1430 	 8.3049 	 1.4493 	 63.5971 	 1.7534 	 56.6718 	 29.0387 	 6.9253 	 2.3400
  0.3600 	 1.4600 	 10.1459 	 8.3036 	 1.4458 	 63.5733 	 1.7520 	 56.7559 	 28.4717 	 6.8175 	 2.3400
  0.3600 	 1.4650 	 10.1488 	 8.3025 	 1.4423 	 63.5462 	 1.7506 	 56.8394 	 27.8974 	 6.7067 	 2.3400
  0.3600 	 1.4700 	 10.1517 	 8.3013 	 1.4388 	 63.5156 	 1.7492 	 56.9226 	 27.3153 	 6.5930 	 2.3400
  0.3600 	 1.4750 	 10.1546 	 8.3001 	 1.4354 	 63.4814 	 1.7478 	 57.0053 	 26.7248 	 6.4760 	 2.3400
  0.3600 	 1.4800 	 10.1575 	 8.2989 	 1.4320 	 63.4434 	 1.7464 	 57.0876 	 26.1255 	 6.3558 	 2.3400
  0.3600 	 1.4850 	 10.1603 	 8.2978 	 1.4286 	 63.4014 	 1.7450 	 57.1695 	 25.5165 	 6.2319 	 2.3400
  0.3600 	 1.4900 	 10.1631 	 8.2966 	 1.4252 	 63.3553 	 1.7437 	 57.2509 	 24.8971 	 6.1044 	 2.3400
  0.3600 	 1.4950 	 10.1659 	 8.2955 	 1.4219 	 63.3048 	 1.7423 	 57.3320 	 24.2666 	 5.9728 	 2.3400
  0.3600 	 1.5000 	 10.1687 	 8.2943 	 1.4185 	 63.2496 	 1.7410 	 57.4126 	 23.6238 	 5.8370 	 2.3400
  0.3600 	 1.5050 	 10.1714 	 8.2932 	 1.4152 	 63.1894 	 1.7397 	 57.4928 	 22.9678 	 5.6967 	 2.3400
  0.3600 	 1.5100 	 10.1742 	 8.2921 	 1.4119 	 63.1240 	 1.7384 	 57.5725 	 22.2974 	 5.5515 	 2.3400
  0.3600 	 1.5150 	 10.1769 	 8.2910 	 1.4086 	 63.0529 	 1.7371 	 57.6519 	 21.6112 	 5.4010 	 2.3400
  0.3600 	 1.5200 	 10.1796 	 8.2899 	 1.4054 	 62.9757 	 1.7358 	 57.7309 	 20.9074 	 5.2448 	 2.3400
  0.3600 	 1.5250 	 10.1823 	 8.2888 	 1.4022 	 62.8919 	 1.7345 	 57.8094 	 20.1844 	 5.0824 	 2.3400
  0.3600 	 1.5300 	 10.1850 	 8.2877 	 1.3989 	 62.8008 	 1.7333 	 57.8876 	 19.4398 	 4.9132 	 2.3400
  0.3600 	 1.5350 	 10.1876 	 8.2866 	 1.3957 	 62.7017 	 1.7320 	 57.9654 	 18.6710 	 4.7364 	 2.3400
  0.3600 	 1.5400 	 10.1903 	 8.2855 	 1.3926 	 62.5939 	 1.7308 	 58.0427 	 17.8749 	 4.5511 	 2.3400
  0.3600 	 1.5450 	 10.1929 	 8.2845 	 1.3894 	 62.4761 	 1.7296 	 58.1197 	 17.0476 	 4.3564 	 2.3400
  0.3600 	 1.5500 	 10.1955 	 8.2834 	 1.3863 	 62.3472 	 1.7284 	 58.1963 	 16.1841 	 4.1508 	 2.3400
  0.3600 	 1.5550 	 10.1981 	 8.2823 	 1.3831 	 62.2053 	 1.7272 	 58.2725 	 15.2784 	 3.9328 	 2.3400
  0.3600 	 1.5600 	 10.2007 	 8.2813 	 1.3800 	 62.0483 	 1.7260 	 58.3483 	 14.3223 	 3.7000 	 2.3400
  0.3600 	 1.5650 	 10.2032 	 8.2803 	 1.3769 	 61.8733 	 1.7248 	 58.4238 	 13.3050 	 3.4495 	 2.3400
  0.3600 	 1.5700 	 10.2057 	 8.2792 	 1.3739 	 61.6760 	 1.7236 	 58.4988 	 12.2109 	 3.1771 	 2.3400
  0.3600 	 1.5750 	 10.2083 	 8.2782 	 1.3708 	 61.4503 	 1.7225 	 58.5735 	 11.0173 	 2.8768 	 2.3400
  0.3600 	 1.5800 	 10.2108 	 8.2772 	 1.3678 	 61.1862 	 1.7213 	 58.6478 	 9.6873 	 2.5384 	 2.3400
  0.3600 	 1.5850 	 10.2133 	 8.2762 	 1.3648 	 60.8660 	 1.7202 	 58.7218 	 8.1544 	 2.1442 	 2.3400
  0.3600 	 1.5900 	 10.2157 	 8.2752 	 1.3618 	 60.4501 	 1.7190 	 58.7953 	 6.2712 	 1.6548 	 2.3400
  0.3600 	 1.3900 	 10.0991 	 8.3407 	 1.5013 	 63.5534 	 1.7781 	 55.4757 	 35.8726 	 8.0777 	 2.3500
  0.3600 	 1.3950 	 10.1023 	 8.3394 	 1.4975 	 63.5645 	 1.7765 	 55.5658 	 35.3674 	 7.9986 	 2.3500
  0.3600 	 1.4000 	 10.1055 	 8.3381 	 1.4937 	 63.5733 	 1.7749 	 55.6555 	 34.8588 	 7.9178 	 2.3500
  0.3600 	 1.4050 	 10.1087 	 8.3367 	 1.4899 	 63.5797 	 1.7733 	 55.7446 	 34.3465 	 7.8351 	 2.3500
  0.3600 	 1.4100 	 10.1118 	 8.3354 	 1.4862 	 63.5837 	 1.7717 	 55.8333 	 33.8305 	 7.7504 	 2.3500
  0.3600 	 1.4150 	 10.1150 	 8.3341 	 1.4825 	 63.5852 	 1.7701 	 55.9215 	 33.3104 	 7.6637 	 2.3500
  0.3600 	 1.4200 	 10.1181 	 8.3329 	 1.4788 	 63.5843 	 1.7685 	 56.0093 	 32.7860 	 7.5750 	 2.3500
  0.3600 	 1.4250 	 10.1212 	 8.3316 	 1.4751 	 63.5807 	 1.7670 	 56.0965 	 32.2572 	 7.4842 	 2.3500
  0.3600 	 1.4300 	 10.1243 	 8.3303 	 1.4715 	 63.5745 	 1.7655 	 56.1834 	 31.7235 	 7.3911 	 2.3500
  0.3600 	 1.4350 	 10.1273 	 8.3291 	 1.4679 	 63.5655 	 1.7640 	 56.2697 	 31.1848 	 7.2958 	 2.3500
  0.3600 	 1.4400 	 10.1303 	 8.3278 	 1.4643 	 63.5537 	 1.7625 	 56.3556 	 30.6406 	 7.1981 	 2.3500
  0.3600 	 1.4450 	 10.1334 	 8.3266 	 1.4607 	 63.5391 	 1.7610 	 56.4411 	 30.0907 	 7.0980 	 2.3500
  0.3600 	 1.4500 	 10.1363 	 8.3253 	 1.4571 	 63.5214 	 1.7595 	 56.5261 	 29.5348 	 6.9953 	 2.3500
  0.3600 	 1.4550 	 10.1393 	 8.3241 	 1.4536 	 63.5006 	 1.7581 	 56.6107 	 28.9723 	 6.8900 	 2.3500
  0.3600 	 1.4600 	 10.1423 	 8.3229 	 1.4501 	 63.4766 	 1.7566 	 56.6948 	 28.4030 	 6.7818 	 2.3500
  0.3600 	 1.4650 	 10.1452 	 8.3217 	 1.4466 	 63.4492 	 1.7552 	 56.7785 	 27.8262 	 6.6708 	 2.3500
  0.3600 	 1.4700 	 10.1481 	 8.3205 	 1.4431 	 63.4184 	 1.7538 	 56.8617 	 27.2416 	 6.5567 	 2.3500
  0.3600 	 1.4750 	 10.1510 	 8.3193 	 1.4397 	 63.3839 	 1.7524 	 56.9445 	 26.6484 	 6.4394 	 2.3500
  0.3600 	 1.4800 	 10.1538 	 8.3181 	 1.4363 	 63.3456 	 1.7510 	 57.0269 	 26.0462 	 6.3187 	 2.3500
  0.3600 	 1.4850 	 10.1567 	 8.3170 	 1.4329 	 63.3033 	 1.7496 	 57.1089 	 25.4343 	 6.1944 	 2.3500
  0.3600 	 1.4900 	 10.1595 	 8.3158 	 1.4295 	 63.2568 	 1.7483 	 57.1904 	 24.8117 	 6.0664 	 2.3500
  0.3600 	 1.4950 	 10.1623 	 8.3147 	 1.4261 	 63.2059 	 1.7469 	 57.2715 	 24.1778 	 5.9343 	 2.3500
  0.3600 	 1.5000 	 10.1651 	 8.3135 	 1.4228 	 63.1502 	 1.7456 	 57.3522 	 23.5314 	 5.7980 	 2.3500
  0.3600 	 1.5050 	 10.1679 	 8.3124 	 1.4195 	 63.0895 	 1.7442 	 57.4325 	 22.8716 	 5.6570 	 2.3500
  0.3600 	 1.5100 	 10.1707 	 8.3113 	 1.4162 	 63.0235 	 1.7429 	 57.5124 	 22.1971 	 5.5111 	 2.3500
  0.3600 	 1.5150 	 10.1734 	 8.3101 	 1.4129 	 62.9517 	 1.7416 	 57.5919 	 21.5064 	 5.3599 	 2.3500
  0.3600 	 1.5200 	 10.1761 	 8.3090 	 1.4096 	 62.8738 	 1.7403 	 57.6709 	 20.7978 	 5.2028 	 2.3500
  0.3600 	 1.5250 	 10.1788 	 8.3079 	 1.4064 	 62.7891 	 1.7391 	 57.7496 	 20.0695 	 5.0395 	 2.3500
  0.3600 	 1.5300 	 10.1815 	 8.3068 	 1.4031 	 62.6970 	 1.7378 	 57.8278 	 19.3191 	 4.8692 	 2.3500
  0.3600 	 1.5350 	 10.1842 	 8.3057 	 1.3999 	 62.5968 	 1.7365 	 57.9057 	 18.5439 	 4.6911 	 2.3500
  0.3600 	 1.5400 	 10.1868 	 8.3046 	 1.3967 	 62.4876 	 1.7353 	 57.9832 	 17.7406 	 4.5045 	 2.3500
  0.3600 	 1.5450 	 10.1894 	 8.3036 	 1.3936 	 62.3683 	 1.7341 	 58.0602 	 16.9052 	 4.3081 	 2.3500
  0.3600 	 1.5500 	 10.1921 	 8.3025 	 1.3904 	 62.2375 	 1.7328 	 58.1369 	 16.0324 	 4.1006 	 2.3500
  0.3600 	 1.5550 	 10.1947 	 8.3014 	 1.3873 	 62.0935 	 1.7316 	 58.2132 	 15.1159 	 3.8802 	 2.3500
  0.3600 	 1.5600 	 10.1972 	 8.3004 	 1.3842 	 61.9338 	 1.7304 	 58.2891 	 14.1471 	 3.6446 	 2.3500
  0.3600 	 1.5650 	 10.1998 	 8.2993 	 1.3811 	 61.7554 	 1.7293 	 58.3647 	 13.1142 	 3.3907 	 2.3500
  0.3600 	 1.5700 	 10.2024 	 8.2983 	 1.3780 	 61.5537 	 1.7281 	 58.4398 	 12.0007 	 3.1139 	 2.3500
  0.3600 	 1.5750 	 10.2049 	 8.2973 	 1.3749 	 61.3221 	 1.7269 	 58.5146 	 10.7815 	 2.8075 	 2.3500
  0.3600 	 1.5800 	 10.2074 	 8.2963 	 1.3719 	 61.0495 	 1.7257 	 58.5890 	 9.4156 	 2.4605 	 2.3500
  0.3600 	 1.5850 	 10.2099 	 8.2952 	 1.3688 	 60.7154 	 1.7246 	 58.6630 	 7.8265 	 2.0524 	 2.3500
  0.3600 	 1.5900 	 10.2124 	 8.2942 	 1.3658 	 60.2720 	 1.7235 	 58.7367 	 5.8342 	 1.5353 	 2.3500
  0.3600 	 1.3900 	 10.0952 	 8.3601 	 1.5058 	 63.4584 	 1.7829 	 55.4135 	 35.8298 	 8.0449 	 2.3600
  0.3600 	 1.3950 	 10.0985 	 8.3587 	 1.5020 	 63.4695 	 1.7812 	 55.5037 	 35.3231 	 7.9658 	 2.3600
  0.3600 	 1.4000 	 10.1017 	 8.3574 	 1.4982 	 63.4782 	 1.7796 	 55.5934 	 34.8130 	 7.8848 	 2.3600
  0.3600 	 1.4050 	 10.1049 	 8.3561 	 1.4944 	 63.4846 	 1.7780 	 55.6827 	 34.2992 	 7.8019 	 2.3600
  0.3600 	 1.4100 	 10.1081 	 8.3547 	 1.4907 	 63.4885 	 1.7764 	 55.7715 	 33.7815 	 7.7171 	 2.3600
  0.3600 	 1.4150 	 10.1112 	 8.3534 	 1.4869 	 63.4900 	 1.7748 	 55.8598 	 33.2597 	 7.6303 	 2.3600
  0.3600 	 1.4200 	 10.1143 	 8.3521 	 1.4832 	 63.4890 	 1.7732 	 55.9476 	 32.7337 	 7.5414 	 2.3600
  0.3600 	 1.4250 	 10.1175 	 8.3509 	 1.4796 	 63.4853 	 1.7717 	 56.0350 	 32.2030 	 7.4504 	 2.3600
  0.3600 	 1.4300 	 10.1205 	 8.3496 	 1.4759 	 63.4790 	 1.7702 	 56.1219 	 31.6675 	 7.3572 	 2.3600
  0.3600 	 1.4350 	 10.1236 	 8.3483 	 1.4723 	 63.4700 	 1.7686 	 56.2083 	 31.1268 	 7.2616 	 2.3600
  0.3600 	 1.4400 	 10.1266 	 8.3471 	 1.4687 	 63.4581 	 1.7671 	 56.2943 	 30.5807 	 7.1637 	 2.3600
  0.3600 	 1.4450 	 10.1297 	 8.3458 	 1.4651 	 63.4433 	 1.7656 	 56.3799 	 30.0287 	 7.0634 	 2.3600
  0.3600 	 1.4500 	 10.1327 	 8.3446 	 1.4615 	 63.4254 	 1.7642 	 56.4650 	 29.4706 	 6.9604 	 2.3600
  0.3600 	 1.4550 	 10.1356 	 8.3433 	 1.4580 	 63.4045 	 1.7627 	 56.5496 	 28.9059 	 6.8548 	 2.3600
  0.3600 	 1.4600 	 10.1386 	 8.3421 	 1.4544 	 63.3802 	 1.7612 	 56.6339 	 28.3342 	 6.7464 	 2.3600
  0.3600 	 1.4650 	 10.1415 	 8.3409 	 1.4509 	 63.3527 	 1.7598 	 56.7176 	 27.7550 	 6.6350 	 2.3600
  0.3600 	 1.4700 	 10.1445 	 8.3397 	 1.4475 	 63.3216 	 1.7584 	 56.8010 	 27.1678 	 6.5206 	 2.3600
  0.3600 	 1.4750 	 10.1474 	 8.3385 	 1.4440 	 63.2868 	 1.7570 	 56.8839 	 26.5719 	 6.4029 	 2.3600
  0.3600 	 1.4800 	 10.1502 	 8.3373 	 1.4406 	 63.2482 	 1.7556 	 56.9664 	 25.9669 	 6.2818 	 2.3600
  0.3600 	 1.4850 	 10.1531 	 8.3362 	 1.4372 	 63.2056 	 1.7542 	 57.0484 	 25.3519 	 6.1571 	 2.3600
  0.3600 	 1.4900 	 10.1560 	 8.3350 	 1.4338 	 63.1587 	 1.7528 	 57.1301 	 24.7262 	 6.0286 	 2.3600
  0.3600 	 1.4950 	 10.1588 	 8.3338 	 1.4304 	 63.1073 	 1.7515 	 57.2113 	 24.0888 	 5.8960 	 2.3600
  0.3600 	 1.5000 	 10.1616 	 8.3327 	 1.4270 	 63.0512 	 1.7501 	 57.2921 	 23.4389 	 5.7591 	 2.3600
  0.3600 	 1.5050 	 10.1644 	 8.3315 	 1.4237 	 62.9900 	 1.7488 	 57.3725 	 22.7752 	 5.6175 	 2.3600
  0.3600 	 1.5100 	 10.1671 	 8.3304 	 1.4204 	 62.9233 	 1.7475 	 57.4524 	 22.0965 	 5.4709 	 2.3600
  0.3600 	 1.5150 	 10.1699 	 8.3293 	 1.4171 	 62.8509 	 1.7462 	 57.5320 	 21.4012 	 5.3189 	 2.3600
  0.3600 	 1.5200 	 10.1726 	 8.3281 	 1.4138 	 62.7721 	 1.7449 	 57.6111 	 20.6878 	 5.1610 	 2.3600
  0.3600 	 1.5250 	 10.1753 	 8.3270 	 1.4106 	 62.6866 	 1.7436 	 57.6899 	 19.9541 	 4.9967 	 2.3600
  0.3600 	 1.5300 	 10.1780 	 8.3259 	 1.4073 	 62.5935 	 1.7423 	 57.7683 	 19.1979 	 4.8252 	 2.3600
  0.3600 	 1.5350 	 10.1807 	 8.3248 	 1.4041 	 62.4922 	 1.7411 	 57.8462 	 18.4162 	 4.6460 	 2.3600
  0.3600 	 1.5400 	 10.1834 	 8.3237 	 1.4009 	 62.3816 	 1.7398 	 57.9238 	 17.6056 	 4.4579 	 2.3600
  0.3600 	 1.5450 	 10.1860 	 8.3227 	 1.3977 	 62.2608 	 1.7386 	 58.0009 	 16.7618 	 4.2598 	 2.3600
  0.3600 	 1.5500 	 10.1886 	 8.3216 	 1.3946 	 62.1281 	 1.7373 	 58.0777 	 15.8796 	 4.0504 	 2.3600
  0.3600 	 1.5550 	 10.1912 	 8.3205 	 1.3914 	 61.9817 	 1.7361 	 58.1541 	 14.9520 	 3.8276 	 2.3600
  0.3600 	 1.5600 	 10.1938 	 8.3195 	 1.3883 	 61.8193 	 1.7349 	 58.2301 	 13.9700 	 3.5892 	 2.3600
  0.3600 	 1.5650 	 10.1964 	 8.3184 	 1.3852 	 61.6373 	 1.7337 	 58.3057 	 12.9210 	 3.3316 	 2.3600
  0.3600 	 1.5700 	 10.1990 	 8.3174 	 1.3821 	 61.4311 	 1.7325 	 58.3810 	 11.7871 	 3.0501 	 2.3600
  0.3600 	 1.5750 	 10.2015 	 8.3163 	 1.3790 	 61.1932 	 1.7314 	 58.4558 	 10.5409 	 2.7373 	 2.3600
  0.3600 	 1.5800 	 10.2040 	 8.3153 	 1.3759 	 60.9113 	 1.7302 	 58.5303 	 9.1364 	 2.3810 	 2.3600
  0.3600 	 1.5850 	 10.2065 	 8.3143 	 1.3729 	 60.5619 	 1.7290 	 58.6045 	 7.4849 	 1.9575 	 2.3600
  0.3600 	 1.5900 	 10.2090 	 8.3133 	 1.3699 	 60.0856 	 1.7279 	 58.6782 	 5.3627 	 1.4074 	 2.3600
  0.3600 	 1.3900 	 10.0914 	 8.3794 	 1.5103 	 63.3638 	 1.7876 	 55.3515 	 35.7871 	 8.0123 	 2.3700
  0.3600 	 1.3950 	 10.0947 	 8.3780 	 1.5065 	 63.3748 	 1.7860 	 55.4417 	 35.2789 	 7.9331 	 2.3700
  0.3600 	 1.4000 	 10.0979 	 8.3767 	 1.5027 	 63.3835 	 1.7843 	 55.5316 	 34.7672 	 7.8520 	 2.3700
  0.3600 	 1.4050 	 10.1011 	 8.3753 	 1.4989 	 63.3899 	 1.7827 	 55.6209 	 34.2518 	 7.7690 	 2.3700
  0.3600 	 1.4100 	 10.1043 	 8.3740 	 1.4951 	 63.3938 	 1.7811 	 55.7098 	 33.7325 	 7.6840 	 2.3700
  0.3600 	 1.4150 	 10.1074 	 8.3727 	 1.4914 	 63.3952 	 1.7795 	 55.7982 	 33.2091 	 7.5971 	 2.3700
  0.3600 	 1.4200 	 10.1106 	 8.3714 	 1.4877 	 63.3941 	 1.7779 	 55.8861 	 32.6812 	 7.5080 	 2.3700
  0.3600 	 1.4250 	 10.1137 	 8.3701 	 1.4840 	 63.3904 	 1.7764 	 55.9736 	 32.1488 	 7.4168 	 2.3700
  0.3600 	 1.4300 	 10.1168 	 8.3688 	 1.4803 	 63.3840 	 1.7748 	 56.0606 	 31.6114 	 7.3234 	 2.3700
  0.3600 	 1.4350 	 10.1199 	 8.3676 	 1.4767 	 63.3748 	 1.7733 	 56.1471 	 31.0688 	 7.2277 	 2.3700
  0.3600 	 1.4400 	 10.1229 	 8.3663 	 1.4731 	 63.3628 	 1.7718 	 56.2332 	 30.5207 	 7.1296 	 2.3700
  0.3600 	 1.4450 	 10.1260 	 8.3650 	 1.4695 	 63.3478 	 1.7703 	 56.3189 	 29.9667 	 7.0290 	 2.3700
  0.3600 	 1.4500 	 10.1290 	 8.3638 	 1.4659 	 63.3298 	 1.7688 	 56.4041 	 29.4064 	 6.9258 	 2.3700
  0.3600 	 1.4550 	 10.1320 	 8.3625 	 1.4623 	 63.3087 	 1.7673 	 56.4888 	 28.8394 	 6.8199 	 2.3700
  0.3600 	 1.4600 	 10.1350 	 8.3613 	 1.4588 	 63.2843 	 1.7659 	 56.5731 	 28.2654 	 6.7111 	 2.3700
  0.3600 	 1.4650 	 10.1379 	 8.3601 	 1.4553 	 63.2565 	 1.7644 	 56.6570 	 27.6837 	 6.5995 	 2.3700
  0.3600 	 1.4700 	 10.1408 	 8.3589 	 1.4518 	 63.2251 	 1.7630 	 56.7404 	 27.0939 	 6.4847 	 2.3700
  0.3600 	 1.4750 	 10.1438 	 8.3577 	 1.4483 	 63.1901 	 1.7616 	 56.8235 	 26.4953 	 6.3667 	 2.3700
  0.3600 	 1.4800 	 10.1466 	 8.3565 	 1.4449 	 63.1512 	 1.7602 	 56.9060 	 25.8874 	 6.2452 	 2.3700
  0.3600 	 1.4850 	 10.1495 	 8.3553 	 1.4414 	 63.1082 	 1.7588 	 56.9882 	 25.2694 	 6.1200 	 2.3700
  0.3600 	 1.4900 	 10.1524 	 8.3541 	 1.4380 	 63.0609 	 1.7574 	 57.0699 	 24.6404 	 5.9910 	 2.3700
  0.3600 	 1.4950 	 10.1552 	 8.3530 	 1.4347 	 63.0091 	 1.7560 	 57.1512 	 23.9997 	 5.8579 	 2.3700
  0.3600 	 1.5000 	 10.1580 	 8.3518 	 1.4313 	 62.9525 	 1.7547 	 57.2321 	 23.3461 	 5.7204 	 2.3700
  0.3600 	 1.5050 	 10.1608 	 8.3507 	 1.4279 	 62.8908 	 1.7533 	 57.3126 	 22.6785 	 5.5782 	 2.3700
  0.3600 	 1.5100 	 10.1636 	 8.3495 	 1.4246 	 62.8235 	 1.7520 	 57.3926 	 21.9955 	 5.4309 	 2.3700
  0.3600 	 1.5150 	 10.1664 	 8.3484 	 1.4213 	 62.7504 	 1.7507 	 57.4723 	 21.2958 	 5.2781 	 2.3700
  0.3600 	 1.5200 	 10.1691 	 8.3472 	 1.4180 	 62.6709 	 1.7494 	 57.5515 	 20.5774 	 5.1193 	 2.3700
  0.3600 	 1.5250 	 10.1718 	 8.3461 	 1.4148 	 62.5844 	 1.7481 	 57.6304 	 19.8383 	 4.9540 	 2.3700
  0.3600 	 1.5300 	 10.1745 	 8.3450 	 1.4115 	 62.4903 	 1.7468 	 57.7088 	 19.0761 	 4.7815 	 2.3700
  0.3600 	 1.5350 	 10.1772 	 8.3439 	 1.4083 	 62.3878 	 1.7456 	 57.7869 	 18.2877 	 4.6009 	 2.3700
  0.3600 	 1.5400 	 10.1799 	 8.3428 	 1.4051 	 62.2759 	 1.7443 	 57.8645 	 17.4697 	 4.4113 	 2.3700
  0.3600 	 1.5450 	 10.1826 	 8.3417 	 1.4019 	 62.1534 	 1.7431 	 57.9418 	 16.6175 	 4.2116 	 2.3700
  0.3600 	 1.5500 	 10.1852 	 8.3406 	 1.3987 	 62.0188 	 1.7418 	 58.0187 	 15.7255 	 4.0001 	 2.3700
  0.3600 	 1.5550 	 10.1878 	 8.3396 	 1.3955 	 61.8701 	 1.7406 	 58.0951 	 14.7866 	 3.7749 	 2.3700
  0.3600 	 1.5600 	 10.1904 	 8.3385 	 1.3924 	 61.7047 	 1.7394 	 58.1712 	 13.7909 	 3.5335 	 2.3700
  0.3600 	 1.5650 	 10.1930 	 8.3374 	 1.3893 	 61.5191 	 1.7382 	 58.2470 	 12.7252 	 3.2722 	 2.3700
  0.3600 	 1.5700 	 10.1956 	 8.3364 	 1.3862 	 61.3081 	 1.7370 	 58.3223 	 11.5700 	 2.9858 	 2.3700
  0.3600 	 1.5750 	 10.1981 	 8.3353 	 1.3831 	 61.0635 	 1.7358 	 58.3973 	 10.2951 	 2.6662 	 2.3700
  0.3600 	 1.5800 	 10.2007 	 8.3343 	 1.3800 	 60.7717 	 1.7346 	 58.4719 	 8.8489 	 2.2998 	 2.3700
  0.3600 	 1.5850 	 10.2032 	 8.3333 	 1.3770 	 60.4051 	 1.7335 	 58.5461 	 7.1276 	 1.8590 	 2.3700
  0.3600 	 1.3900 	 10.0876 	 8.3987 	 1.5148 	 63.2696 	 1.7924 	 55.2896 	 35.7443 	 7.9800 	 2.3800
  0.3600 	 1.3950 	 10.0908 	 8.3973 	 1.5110 	 63.2806 	 1.7907 	 55.3800 	 35.2346 	 7.9006 	 2.3800
  0.3600 	 1.4000 	 10.0941 	 8.3960 	 1.5072 	 63.2893 	 1.7890 	 55.4699 	 34.7214 	 7.8194 	 2.3800
  0.3600 	 1.4050 	 10.0973 	 8.3946 	 1.5034 	 63.2956 	 1.7874 	 55.5593 	 34.2044 	 7.7363 	 2.3800
  0.3600 	 1.4100 	 10.1005 	 8.3933 	 1.4996 	 63.2994 	 1.7858 	 55.6483 	 33.6835 	 7.6512 	 2.3800
  0.3600 	 1.4150 	 10.1037 	 8.3920 	 1.4958 	 63.3008 	 1.7842 	 55.7368 	 33.1584 	 7.5640 	 2.3800
  0.3600 	 1.4200 	 10.1068 	 8.3906 	 1.4921 	 63.2996 	 1.7826 	 55.8248 	 32.6288 	 7.4748 	 2.3800
  0.3600 	 1.4250 	 10.1100 	 8.3893 	 1.4884 	 63.2958 	 1.7811 	 55.9124 	 32.0946 	 7.3834 	 2.3800
  0.3600 	 1.4300 	 10.1131 	 8.3880 	 1.4847 	 63.2893 	 1.7795 	 55.9995 	 31.5553 	 7.2898 	 2.3800
  0.3600 	 1.4350 	 10.1162 	 8.3868 	 1.4811 	 63.2800 	 1.7780 	 56.0861 	 31.0108 	 7.1939 	 2.3800
  0.3600 	 1.4400 	 10.1192 	 8.3855 	 1.4774 	 63.2679 	 1.7764 	 56.1723 	 30.4607 	 7.0956 	 2.3800
  0.3600 	 1.4450 	 10.1223 	 8.3842 	 1.4738 	 63.2528 	 1.7749 	 56.2580 	 29.9046 	 6.9947 	 2.3800
  0.3600 	 1.4500 	 10.1253 	 8.3830 	 1.4702 	 63.2346 	 1.7734 	 56.3433 	 29.3421 	 6.8913 	 2.3800
  0.3600 	 1.4550 	 10.1283 	 8.3817 	 1.4667 	 63.2133 	 1.7720 	 56.4282 	 28.7729 	 6.7851 	 2.3800
  0.3600 	 1.4600 	 10.1313 	 8.3805 	 1.4631 	 63.1887 	 1.7705 	 56.5126 	 28.1965 	 6.6761 	 2.3800
  0.3600 	 1.4650 	 10.1343 	 8.3793 	 1.4596 	 63.1607 	 1.7690 	 56.5966 	 27.6123 	 6.5641 	 2.3800
  0.3600 	 1.4700 	 10.1372 	 8.3780 	 1.4561 	 63.1291 	 1.7676 	 56.6801 	 27.0199 	 6.4490 	 2.3800
  0.3600 	 1.4750 	 10.1401 	 8.3768 	 1.4526 	 63.0938 	 1.7662 	 56.7632 	 26.4186 	 6.3306 	 2.3800
  0.3600 	 1.4800 	 10.1430 	 8.3756 	 1.4492 	 63.0545 	 1.7648 	 56.8459 	 25.8078 	 6.2087 	 2.3800
  0.3600 	 1.4850 	 10.1459 	 8.3744 	 1.4457 	 63.0112 	 1.7634 	 56.9281 	 25.1867 	 6.0831 	 2.3800
  0.3600 	 1.4900 	 10.1488 	 8.3732 	 1.4423 	 62.9636 	 1.7620 	 57.0099 	 24.5545 	 5.9536 	 2.3800
  0.3600 	 1.4950 	 10.1516 	 8.3721 	 1.4389 	 62.9113 	 1.7606 	 57.0913 	 23.9103 	 5.8200 	 2.3800
  0.3600 	 1.5000 	 10.1545 	 8.3709 	 1.4355 	 62.8542 	 1.7592 	 57.1723 	 23.2530 	 5.6819 	 2.3800
  0.3600 	 1.5050 	 10.1573 	 8.3697 	 1.4322 	 62.7919 	 1.7579 	 57.2529 	 22.5815 	 5.5390 	 2.3800
  0.3600 	 1.5100 	 10.1601 	 8.3686 	 1.4288 	 62.7240 	 1.7566 	 57.3330 	 21.8943 	 5.3910 	 2.3800
  0.3600 	 1.5150 	 10.1628 	 8.3674 	 1.4255 	 62.6502 	 1.7552 	 57.4128 	 21.1900 	 5.2374 	 2.3800
  0.3600 	 1.5200 	 10.1656 	 8.3663 	 1.4222 	 62.5699 	 1.7539 	 57.4921 	 20.4666 	 5.0778 	 2.3800
  0.3600 	 1.5250 	 10.1683 	 8.3652 	 1.4189 	 62.4825 	 1.7526 	 57.5711 	 19.7220 	 4.9114 	 2.3800
  0.3600 	 1.5300 	 10.1711 	 8.3641 	 1.4157 	 62.3874 	 1.7513 	 57.6496 	 18.9537 	 4.7378 	 2.3800
  0.3600 	 1.5350 	 10.1738 	 8.3630 	 1.4124 	 62.2837 	 1.7501 	 57.7277 	 18.1586 	 4.5559 	 2.3800
  0.3600 	 1.5400 	 10.1764 	 8.3619 	 1.4092 	 62.1703 	 1.7488 	 57.8055 	 17.3330 	 4.3649 	 2.3800
  0.3600 	 1.5450 	 10.1791 	 8.3608 	 1.4060 	 62.0462 	 1.7475 	 57.8828 	 16.4721 	 4.1634 	 2.3800
  0.3600 	 1.5500 	 10.1817 	 8.3597 	 1.4028 	 61.9096 	 1.7463 	 57.9598 	 15.5702 	 3.9498 	 2.3800
  0.3600 	 1.5550 	 10.1844 	 8.3586 	 1.3997 	 61.7585 	 1.7451 	 58.0364 	 14.6195 	 3.7221 	 2.3800
  0.3600 	 1.5600 	 10.1870 	 8.3575 	 1.3965 	 61.5902 	 1.7438 	 58.1126 	 13.6098 	 3.4776 	 2.3800
  0.3600 	 1.5650 	 10.1896 	 8.3564 	 1.3934 	 61.4008 	 1.7426 	 58.1884 	 12.5267 	 3.2124 	 2.3800
  0.3600 	 1.5700 	 10.1922 	 8.3554 	 1.3903 	 61.1846 	 1.7414 	 58.2638 	 11.3491 	 2.9208 	 2.3800
  0.3600 	 1.5750 	 10.1947 	 8.3543 	 1.3872 	 60.9329 	 1.7402 	 58.3388 	 10.0437 	 2.5941 	 2.3800
  0.3600 	 1.5800 	 10.1973 	 8.3533 	 1.3841 	 60.6302 	 1.7391 	 58.4135 	 8.5522 	 2.2167 	 2.3800
  0.3600 	 1.5850 	 10.1998 	 8.3522 	 1.3810 	 60.2442 	 1.7379 	 58.4878 	 6.7522 	 1.7563 	 2.3800
  0.3600 	 1.3900 	 10.0837 	 8.4179 	 1.5193 	 63.1758 	 1.7971 	 55.2279 	 35.7015 	 7.9479 	 2.3900
  0.3600 	 1.3950 	 10.0870 	 8.4166 	 1.5155 	 63.1868 	 1.7954 	 55.3184 	 35.1904 	 7.8684 	 2.3900
  0.3600 	 1.4000 	 10.0903 	 8.4152 	 1.5116 	 63.1954 	 1.7938 	 55.4084 	 34.6756 	 7.7870 	 2.3900
  0.3600 	 1.4050 	 10.0935 	 8.4138 	 1.5078 	 63.2017 	 1.7921 	 55.4979 	 34.1570 	 7.7037 	 2.3900
  0.3600 	 1.4100 	 10.0967 	 8.4125 	 1.5040 	 63.2055 	 1.7905 	 55.5870 	 33.6345 	 7.6185 	 2.3900
  0.3600 	 1.4150 	 10.0999 	 8.4112 	 1.5003 	 63.2068 	 1.7889 	 55.6756 	 33.1077 	 7.5312 	 2.3900
  0.3600 	 1.4200 	 10.1031 	 8.4098 	 1.4965 	 63.2055 	 1.7873 	 55.7637 	 32.5764 	 7.4418 	 2.3900
  0.3600 	 1.4250 	 10.1062 	 8.4085 	 1.4928 	 63.2016 	 1.7857 	 55.8513 	 32.0403 	 7.3503 	 2.3900
  0.3600 	 1.4300 	 10.1094 	 8.4072 	 1.4891 	 63.1950 	 1.7842 	 55.9385 	 31.4992 	 7.2565 	 2.3900
  0.3600 	 1.4350 	 10.1125 	 8.4059 	 1.4855 	 63.1856 	 1.7826 	 56.0253 	 30.9527 	 7.1604 	 2.3900
  0.3600 	 1.4400 	 10.1155 	 8.4047 	 1.4818 	 63.1734 	 1.7811 	 56.1116 	 30.4006 	 7.0618 	 2.3900
  0.3600 	 1.4450 	 10.1186 	 8.4034 	 1.4782 	 63.1581 	 1.7796 	 56.1974 	 29.8424 	 6.9607 	 2.3900
  0.3600 	 1.4500 	 10.1216 	 8.4021 	 1.4746 	 63.1398 	 1.7781 	 56.2828 	 29.2778 	 6.8570 	 2.3900
  0.3600 	 1.4550 	 10.1247 	 8.4009 	 1.4710 	 63.1183 	 1.7766 	 56.3677 	 28.7063 	 6.7506 	 2.3900
  0.3600 	 1.4600 	 10.1277 	 8.3996 	 1.4675 	 63.0935 	 1.7751 	 56.4522 	 28.1275 	 6.6413 	 2.3900
  0.3600 	 1.4650 	 10.1306 	 8.3984 	 1.4639 	 63.0653 	 1.7736 	 56.5363 	 27.5408 	 6.5290 	 2.3900
  0.3600 	 1.4700 	 10.1336 	 8.3972 	 1.4604 	 63.0334 	 1.7722 	 56.6199 	 26.9458 	 6.4135 	 2.3900
  0.3600 	 1.4750 	 10.1365 	 8.3959 	 1.4569 	 62.9978 	 1.7708 	 56.7031 	 26.3418 	 6.2947 	 2.3900
  0.3600 	 1.4800 	 10.1394 	 8.3947 	 1.4535 	 62.9583 	 1.7693 	 56.7859 	 25.7281 	 6.1724 	 2.3900
  0.3600 	 1.4850 	 10.1423 	 8.3935 	 1.4500 	 62.9146 	 1.7679 	 56.8682 	 25.1039 	 6.0464 	 2.3900
  0.3600 	 1.4900 	 10.1452 	 8.3923 	 1.4466 	 62.8665 	 1.7665 	 56.9501 	 24.4685 	 5.9164 	 2.3900
  0.3600 	 1.4950 	 10.1481 	 8.3911 	 1.4432 	 62.8138 	 1.7652 	 57.0316 	 23.8208 	 5.7822 	 2.3900
  0.3600 	 1.5000 	 10.1509 	 8.3900 	 1.4398 	 62.7562 	 1.7638 	 57.1127 	 23.1598 	 5.6436 	 2.3900
  0.3600 	 1.5050 	 10.1537 	 8.3888 	 1.4364 	 62.6934 	 1.7624 	 57.1933 	 22.4843 	 5.5001 	 2.3900
  0.3600 	 1.5100 	 10.1565 	 8.3876 	 1.4331 	 62.6249 	 1.7611 	 57.2736 	 21.7928 	 5.3513 	 2.3900
  0.3600 	 1.5150 	 10.1593 	 8.3865 	 1.4297 	 62.5504 	 1.7598 	 57.3534 	 21.0838 	 5.1969 	 2.3900
  0.3600 	 1.5200 	 10.1621 	 8.3854 	 1.4264 	 62.4692 	 1.7584 	 57.4329 	 20.3553 	 5.0364 	 2.3900
  0.3600 	 1.5250 	 10.1648 	 8.3842 	 1.4231 	 62.3809 	 1.7571 	 57.5119 	 19.6052 	 4.8690 	 2.3900
  0.3600 	 1.5300 	 10.1676 	 8.3831 	 1.4199 	 62.2847 	 1.7558 	 57.5905 	 18.8307 	 4.6942 	 2.3900
  0.3600 	 1.5350 	 10.1703 	 8.3820 	 1.4166 	 62.1798 	 1.7545 	 57.6687 	 18.0288 	 4.5110 	 2.3900
  0.3600 	 1.5400 	 10.1730 	 8.3809 	 1.4134 	 62.0650 	 1.7533 	 57.7466 	 17.1954 	 4.3185 	 2.3900
  0.3600 	 1.5450 	 10.1757 	 8.3798 	 1.4102 	 61.9392 	 1.7520 	 57.8240 	 16.3258 	 4.1152 	 2.3900
  0.3600 	 1.5500 	 10.1783 	 8.3787 	 1.4070 	 61.8006 	 1.7508 	 57.9011 	 15.4136 	 3.8995 	 2.3900
  0.3600 	 1.5550 	 10.1810 	 8.3776 	 1.4038 	 61.6470 	 1.7495 	 57.9777 	 14.4509 	 3.6693 	 2.3900
  0.3600 	 1.5600 	 10.1836 	 8.3765 	 1.4006 	 61.4756 	 1.7483 	 58.0540 	 13.4266 	 3.4215 	 2.3900
  0.3600 	 1.5650 	 10.1862 	 8.3754 	 1.3975 	 61.2822 	 1.7471 	 58.1299 	 12.3254 	 3.1522 	 2.3900
  0.3600 	 1.5700 	 10.1888 	 8.3743 	 1.3944 	 61.0607 	 1.7459 	 58.2054 	 11.1243 	 2.8552 	 2.3900
  0.3600 	 1.5750 	 10.1914 	 8.3733 	 1.3913 	 60.8014 	 1.7447 	 58.2806 	 9.7864 	 2.5208 	 2.3900
  0.3600 	 1.5800 	 10.1939 	 8.3722 	 1.3882 	 60.4868 	 1.7435 	 58.3554 	 8.2456 	 2.1315 	 2.3900
  0.3600 	 1.5850 	 10.1965 	 8.3712 	 1.3851 	 60.0784 	 1.7423 	 58.4298 	 6.3555 	 1.6487 	 2.3900
  0.3600 	 1.3900 	 10.0799 	 8.4372 	 1.5238 	 63.0823 	 1.8018 	 55.1664 	 35.6587 	 7.9159 	 2.4000
  0.3600 	 1.3950 	 10.0832 	 8.4358 	 1.5200 	 63.0933 	 1.8001 	 55.2570 	 35.1461 	 7.8363 	 2.4000
  0.3600 	 1.4000 	 10.0865 	 8.4344 	 1.5161 	 63.1019 	 1.7985 	 55.3471 	 34.6298 	 7.7548 	 2.4000
  0.3600 	 1.4050 	 10.0897 	 8.4330 	 1.5123 	 63.1081 	 1.7968 	 55.4367 	 34.1096 	 7.6714 	 2.4000
  0.3600 	 1.4100 	 10.0929 	 8.4317 	 1.5085 	 63.1119 	 1.7952 	 55.5259 	 33.5854 	 7.5860 	 2.4000
  0.3600 	 1.4150 	 10.0962 	 8.4304 	 1.5047 	 63.1131 	 1.7936 	 55.6145 	 33.0569 	 7.4986 	 2.4000
  0.3600 	 1.4200 	 10.0993 	 8.4290 	 1.5010 	 63.1118 	 1.7920 	 55.7027 	 32.5239 	 7.4091 	 2.4000
  0.3600 	 1.4250 	 10.1025 	 8.4277 	 1.4972 	 63.1078 	 1.7904 	 55.7905 	 31.9860 	 7.3173 	 2.4000
  0.3600 	 1.4300 	 10.1056 	 8.4264 	 1.4935 	 63.1011 	 1.7888 	 55.8778 	 31.4431 	 7.2234 	 2.4000
  0.3600 	 1.4350 	 10.1087 	 8.4251 	 1.4899 	 63.0916 	 1.7873 	 55.9646 	 30.8947 	 7.1270 	 2.4000
  0.3600 	 1.4400 	 10.1118 	 8.4238 	 1.4862 	 63.0792 	 1.7857 	 56.0510 	 30.3405 	 7.0282 	 2.4000
  0.3600 	 1.4450 	 10.1149 	 8.4225 	 1.4826 	 63.0639 	 1.7842 	 56.1369 	 29.7802 	 6.9269 	 2.4000
  0.3600 	 1.4500 	 10.1180 	 8.4212 	 1.4790 	 63.0454 	 1.7827 	 56.2224 	 29.2134 	 6.8230 	 2.4000
  0.3600 	 1.4550 	 10.1210 	 8.4200 	 1.4754 	 63.0237 	 1.7812 	 56.3074 	 28.6396 	 6.7163 	 2.4000
  0.3600 	 1.4600 	 10.1240 	 8.4187 	 1.4718 	 62.9987 	 1.7797 	 56.3920 	 28.0584 	 6.6067 	 2.4000
  0.3600 	 1.4650 	 10.1270 	 8.4175 	 1.4682 	 62.9702 	 1.7782 	 56.4762 	 27.4693 	 6.4940 	 2.4000
  0.3600 	 1.4700 	 10.1300 	 8.4162 	 1.4647 	 62.9381 	 1.7768 	 56.5599 	 26.8716 	 6.3782 	 2.4000
  0.3600 	 1.4750 	 10.1329 	 8.4150 	 1.4612 	 62.9022 	 1.7753 	 56.6432 	 26.2649 	 6.2591 	 2.4000
  0.3600 	 1.4800 	 10.1358 	 8.4138 	 1.4577 	 62.8624 	 1.7739 	 56.7260 	 25.6482 	 6.1363 	 2.4000
  0.3600 	 1.4850 	 10.1388 	 8.4126 	 1.4543 	 62.8183 	 1.7725 	 56.8085 	 25.0210 	 6.0099 	 2.4000
  0.3600 	 1.4900 	 10.1416 	 8.4114 	 1.4508 	 62.7699 	 1.7711 	 56.8905 	 24.3823 	 5.8794 	 2.4000
  0.3600 	 1.4950 	 10.1445 	 8.4102 	 1.4474 	 62.7167 	 1.7697 	 56.9720 	 23.7311 	 5.7447 	 2.4000
  0.3600 	 1.5000 	 10.1474 	 8.4090 	 1.4440 	 62.6586 	 1.7683 	 57.0532 	 23.0664 	 5.6054 	 2.4000
  0.3600 	 1.5050 	 10.1502 	 8.4078 	 1.4406 	 62.5952 	 1.7670 	 57.1340 	 22.3868 	 5.4612 	 2.4000
  0.3600 	 1.5100 	 10.1530 	 8.4067 	 1.4373 	 62.5261 	 1.7656 	 57.2143 	 21.6910 	 5.3118 	 2.4000
  0.3600 	 1.5150 	 10.1558 	 8.4055 	 1.4339 	 62.4508 	 1.7643 	 57.2942 	 20.9773 	 5.1566 	 2.4000
  0.3600 	 1.5200 	 10.1586 	 8.4044 	 1.4306 	 62.3689 	 1.7629 	 57.3738 	 20.2437 	 4.9951 	 2.4000
  0.3600 	 1.5250 	 10.1613 	 8.4032 	 1.4273 	 62.2796 	 1.7616 	 57.4529 	 19.4879 	 4.8268 	 2.4000
  0.3600 	 1.5300 	 10.1641 	 8.4021 	 1.4240 	 62.1824 	 1.7603 	 57.5316 	 18.7072 	 4.6508 	 2.4000
  0.3600 	 1.5350 	 10.1668 	 8.4010 	 1.4208 	 62.0762 	 1.7590 	 57.6099 	 17.8983 	 4.4662 	 2.4000
  0.3600 	 1.5400 	 10.1695 	 8.3998 	 1.4175 	 61.9600 	 1.7578 	 57.6879 	 17.0570 	 4.2721 	 2.4000
  0.3600 	 1.5450 	 10.1722 	 8.3987 	 1.4143 	 61.8324 	 1.7565 	 57.7654 	 16.1784 	 4.0670 	 2.4000
  0.3600 	 1.5500 	 10.1749 	 8.3976 	 1.4111 	 61.6917 	 1.7552 	 57.8425 	 15.2557 	 3.8491 	 2.4000
  0.3600 	 1.5550 	 10.1775 	 8.3965 	 1.4079 	 61.5355 	 1.7540 	 57.9193 	 14.2806 	 3.6162 	 2.4000
  0.3600 	 1.5600 	 10.1802 	 8.3954 	 1.4047 	 61.3609 	 1.7528 	 57.9957 	 13.2413 	 3.3652 	 2.4000
  0.3600 	 1.5650 	 10.1828 	 8.3944 	 1.4016 	 61.1633 	 1.7515 	 58.0717 	 12.1211 	 3.0916 	 2.4000
  0.3600 	 1.5700 	 10.1854 	 8.3933 	 1.3985 	 60.9362 	 1.7503 	 58.1473 	 10.8952 	 2.7889 	 2.4000
  0.3600 	 1.5750 	 10.1880 	 8.3922 	 1.3953 	 60.6688 	 1.7491 	 58.2225 	 9.5227 	 2.4463 	 2.4000
  0.3600 	 1.5800 	 10.1905 	 8.3912 	 1.3922 	 60.3412 	 1.7479 	 58.2974 	 7.9277 	 2.0438 	 2.4000
  0.3600 	 1.5850 	 10.1931 	 8.3901 	 1.3892 	 59.9069 	 1.7467 	 58.3719 	 5.9331 	 1.5350 	 2.4000
  0.3700 	 1.4000 	 10.1245 	 8.2409 	 1.4669 	 64.4438 	 1.7511 	 55.9685 	 35.7537 	 8.4753 	 2.3000
  0.3700 	 1.4050 	 10.1276 	 8.2397 	 1.4632 	 64.4537 	 1.7496 	 56.0572 	 35.2715 	 8.3965 	 2.3000
  0.3700 	 1.4100 	 10.1307 	 8.2384 	 1.4595 	 64.4614 	 1.7480 	 56.1454 	 34.7863 	 8.3160 	 2.3000
  0.3700 	 1.4150 	 10.1338 	 8.2372 	 1.4558 	 64.4668 	 1.7465 	 56.2331 	 34.2980 	 8.2337 	 2.3000
  0.3700 	 1.4200 	 10.1369 	 8.2359 	 1.4522 	 64.4700 	 1.7450 	 56.3204 	 33.8063 	 8.1496 	 2.3000
  0.3700 	 1.4250 	 10.1399 	 8.2347 	 1.4486 	 64.4707 	 1.7435 	 56.4072 	 33.3111 	 8.0635 	 2.3000
  0.3700 	 1.4300 	 10.1429 	 8.2335 	 1.4450 	 64.4690 	 1.7420 	 56.4935 	 32.8122 	 7.9755 	 2.3000
  0.3700 	 1.4350 	 10.1459 	 8.2323 	 1.4415 	 64.4649 	 1.7406 	 56.5794 	 32.3093 	 7.8855 	 2.3000
  0.3700 	 1.4400 	 10.1488 	 8.2311 	 1.4379 	 64.4583 	 1.7391 	 56.6648 	 31.8022 	 7.7934 	 2.3000
  0.3700 	 1.4450 	 10.1518 	 8.2299 	 1.4344 	 64.4490 	 1.7377 	 56.7498 	 31.2908 	 7.6992 	 2.3000
  0.3700 	 1.4500 	 10.1547 	 8.2287 	 1.4309 	 64.4371 	 1.7362 	 56.8343 	 30.7747 	 7.6028 	 2.3000
  0.3700 	 1.4550 	 10.1576 	 8.2275 	 1.4274 	 64.4224 	 1.7348 	 56.9184 	 30.2536 	 7.5040 	 2.3000
  0.3700 	 1.4600 	 10.1605 	 8.2263 	 1.4240 	 64.4049 	 1.7334 	 57.0020 	 29.7273 	 7.4028 	 2.3000
  0.3700 	 1.4650 	 10.1634 	 8.2252 	 1.4206 	 64.3844 	 1.7320 	 57.0852 	 29.1954 	 7.2992 	 2.3000
  0.3700 	 1.4700 	 10.1662 	 8.2240 	 1.4171 	 64.3610 	 1.7307 	 57.1680 	 28.6576 	 7.1930 	 2.3000
  0.3700 	 1.4750 	 10.1690 	 8.2229 	 1.4137 	 64.3344 	 1.7293 	 57.2503 	 28.1135 	 7.0841 	 2.3000
  0.3700 	 1.4800 	 10.1719 	 8.2217 	 1.4104 	 64.3046 	 1.7280 	 57.3322 	 27.5627 	 6.9723 	 2.3000
  0.3700 	 1.4850 	 10.1746 	 8.2206 	 1.4070 	 64.2714 	 1.7266 	 57.4137 	 27.0047 	 6.8577 	 2.3000
  0.3700 	 1.4900 	 10.1774 	 8.2195 	 1.4037 	 64.2347 	 1.7253 	 57.4948 	 26.4390 	 6.7399 	 2.3000
  0.3700 	 1.4950 	 10.1802 	 8.2184 	 1.4004 	 64.1943 	 1.7240 	 57.5754 	 25.8651 	 6.6189 	 2.3000
  0.3700 	 1.5000 	 10.1829 	 8.2173 	 1.3971 	 64.1500 	 1.7227 	 57.6556 	 25.2824 	 6.4944 	 2.3000
  0.3700 	 1.5050 	 10.1856 	 8.2162 	 1.3938 	 64.1018 	 1.7214 	 57.7355 	 24.6903 	 6.3663 	 2.3000
  0.3700 	 1.5100 	 10.1883 	 8.2151 	 1.3906 	 64.0492 	 1.7201 	 57.8148 	 24.0879 	 6.2344 	 2.3000
  0.3700 	 1.5150 	 10.1910 	 8.2140 	 1.3873 	 63.9922 	 1.7189 	 57.8938 	 23.4744 	 6.0984 	 2.3000
  0.3700 	 1.5200 	 10.1936 	 8.2129 	 1.3841 	 63.9304 	 1.7176 	 57.9724 	 22.8489 	 5.9580 	 2.3000
  0.3700 	 1.5250 	 10.1963 	 8.2118 	 1.3809 	 63.8636 	 1.7164 	 58.0506 	 22.2104 	 5.8130 	 2.3000
  0.3700 	 1.5300 	 10.1989 	 8.2108 	 1.3778 	 63.7913 	 1.7151 	 58.1284 	 21.5577 	 5.6630 	 2.3000
  0.3700 	 1.5350 	 10.2015 	 8.2097 	 1.3746 	 63.7133 	 1.7139 	 58.2058 	 20.8893 	 5.5075 	 2.3000
  0.3700 	 1.5400 	 10.2041 	 8.2087 	 1.3715 	 63.6289 	 1.7127 	 58.2828 	 20.2036 	 5.3461 	 2.3000
  0.3700 	 1.5450 	 10.2067 	 8.2077 	 1.3683 	 63.5377 	 1.7115 	 58.3594 	 19.4988 	 5.1784 	 2.3000
  0.3700 	 1.5500 	 10.2093 	 8.2066 	 1.3652 	 63.4391 	 1.7103 	 58.4356 	 18.7727 	 5.0035 	 2.3000
  0.3700 	 1.5550 	 10.2118 	 8.2056 	 1.3621 	 63.3323 	 1.7092 	 58.5114 	 18.0227 	 4.8209 	 2.3000
  0.3700 	 1.5600 	 10.2143 	 8.2046 	 1.3591 	 63.2163 	 1.7080 	 58.5868 	 17.2456 	 4.6295 	 2.3000
  0.3700 	 1.5650 	 10.2168 	 8.2036 	 1.3560 	 63.0901 	 1.7069 	 58.6619 	 16.4374 	 4.4282 	 2.3000
  0.3700 	 1.5700 	 10.2193 	 8.2026 	 1.3530 	 62.9522 	 1.7057 	 58.7366 	 15.5933 	 4.2156 	 2.3000
  0.3700 	 1.5750 	 10.2218 	 8.2016 	 1.3500 	 62.8009 	 1.7046 	 58.8109 	 14.7071 	 3.9900 	 2.3000
  0.3700 	 1.5800 	 10.2243 	 8.2006 	 1.3470 	 62.6338 	 1.7035 	 58.8848 	 13.7705 	 3.7490 	 2.3000
  0.3700 	 1.5850 	 10.2267 	 8.1996 	 1.3440 	 62.4478 	 1.7023 	 58.9584 	 12.7725 	 3.4894 	 2.3000
  0.3700 	 1.5900 	 10.2291 	 8.1986 	 1.3410 	 62.2382 	 1.7012 	 59.0316 	 11.6972 	 3.2067 	 2.3000
  0.3700 	 1.5950 	 10.2316 	 8.1977 	 1.3381 	 61.9985 	 1.7001 	 59.1044 	 10.5208 	 2.8941 	 2.3000
  0.3700 	 1.6000 	 10.2340 	 8.1967 	 1.3351 	 61.7176 	 1.6991 	 59.1769 	 9.2046 	 2.5407 	 2.3000
  0.3700 	 1.6050 	 10.2364 	 8.1957 	 1.3322 	 61.3753 	 1.6980 	 59.2490 	 7.6770 	 2.1263 	 2.3000
  0.3700 	 1.6100 	 10.2387 	 8.1948 	 1.3293 	 60.9249 	 1.6969 	 59.3207 	 5.7724 	 1.6042 	 2.3000
  0.3700 	 1.4000 	 10.1207 	 8.2604 	 1.4714 	 64.3460 	 1.7559 	 55.9055 	 35.7120 	 8.4404 	 2.3100
  0.3700 	 1.4050 	 10.1239 	 8.2592 	 1.4677 	 64.3559 	 1.7543 	 55.9943 	 35.2284 	 8.3616 	 2.3100
  0.3700 	 1.4100 	 10.1270 	 8.2579 	 1.4640 	 64.3636 	 1.7528 	 56.0826 	 34.7417 	 8.2809 	 2.3100
  0.3700 	 1.4150 	 10.1300 	 8.2566 	 1.4603 	 64.3689 	 1.7512 	 56.1704 	 34.2518 	 8.1985 	 2.3100
  0.3700 	 1.4200 	 10.1331 	 8.2554 	 1.4567 	 64.3720 	 1.7497 	 56.2578 	 33.7586 	 8.1142 	 2.3100
  0.3700 	 1.4250 	 10.1361 	 8.2541 	 1.4531 	 64.3727 	 1.7482 	 56.3447 	 33.2618 	 8.0280 	 2.3100
  0.3700 	 1.4300 	 10.1392 	 8.2529 	 1.4495 	 64.3710 	 1.7467 	 56.4311 	 32.7612 	 7.9399 	 2.3100
  0.3700 	 1.4350 	 10.1422 	 8.2517 	 1.4459 	 64.3668 	 1.7452 	 56.5171 	 32.2566 	 7.8497 	 2.3100
  0.3700 	 1.4400 	 10.1451 	 8.2505 	 1.4423 	 64.3600 	 1.7438 	 56.6026 	 31.7478 	 7.7574 	 2.3100
  0.3700 	 1.4450 	 10.1481 	 8.2493 	 1.4388 	 64.3507 	 1.7423 	 56.6877 	 31.2345 	 7.6630 	 2.3100
  0.3700 	 1.4500 	 10.1510 	 8.2481 	 1.4353 	 64.3386 	 1.7409 	 56.7723 	 30.7165 	 7.5663 	 2.3100
  0.3700 	 1.4550 	 10.1540 	 8.2469 	 1.4318 	 64.3238 	 1.7395 	 56.8565 	 30.1935 	 7.4674 	 2.3100
  0.3700 	 1.4600 	 10.1569 	 8.2457 	 1.4284 	 64.3062 	 1.7381 	 56.9402 	 29.6651 	 7.3660 	 2.3100
  0.3700 	 1.4650 	 10.1597 	 8.2445 	 1.4249 	 64.2856 	 1.7367 	 57.0235 	 29.1311 	 7.2621 	 2.3100
  0.3700 	 1.4700 	 10.1626 	 8.2434 	 1.4215 	 64.2619 	 1.7353 	 57.1064 	 28.5911 	 7.1556 	 2.3100
  0.3700 	 1.4750 	 10.1654 	 8.2422 	 1.4181 	 64.2352 	 1.7339 	 57.1888 	 28.0447 	 7.0464 	 2.3100
  0.3700 	 1.4800 	 10.1683 	 8.2411 	 1.4147 	 64.2051 	 1.7326 	 57.2708 	 27.4915 	 6.9343 	 2.3100
  0.3700 	 1.4850 	 10.1711 	 8.2399 	 1.4113 	 64.1717 	 1.7312 	 57.3524 	 26.9310 	 6.8193 	 2.3100
  0.3700 	 1.4900 	 10.1738 	 8.2388 	 1.4080 	 64.1347 	 1.7299 	 57.4335 	 26.3627 	 6.7011 	 2.3100
  0.3700 	 1.4950 	 10.1766 	 8.2377 	 1.4047 	 64.0940 	 1.7286 	 57.5143 	 25.7860 	 6.5797 	 2.3100
  0.3700 	 1.5000 	 10.1793 	 8.2366 	 1.4014 	 64.0494 	 1.7273 	 57.5946 	 25.2004 	 6.4548 	 2.3100
  0.3700 	 1.5050 	 10.1821 	 8.2355 	 1.3981 	 64.0007 	 1.7260 	 57.6745 	 24.6052 	 6.3262 	 2.3100
  0.3700 	 1.5100 	 10.1848 	 8.2344 	 1.3948 	 63.9478 	 1.7247 	 57.7540 	 23.9995 	 6.1938 	 2.3100
  0.3700 	 1.5150 	 10.1875 	 8.2333 	 1.3916 	 63.8903 	 1.7234 	 57.8331 	 23.3826 	 6.0572 	 2.3100
  0.3700 	 1.5200 	 10.1901 	 8.2322 	 1.3884 	 63.8280 	 1.7222 	 57.9118 	 22.7534 	 5.9162 	 2.3100
  0.3700 	 1.5250 	 10.1928 	 8.2311 	 1.3852 	 63.7605 	 1.7209 	 57.9900 	 22.1110 	 5.7705 	 2.3100
  0.3700 	 1.5300 	 10.1954 	 8.2301 	 1.3820 	 63.6876 	 1.7197 	 58.0679 	 21.4539 	 5.6197 	 2.3100
  0.3700 	 1.5350 	 10.1981 	 8.2290 	 1.3788 	 63.6088 	 1.7185 	 58.1454 	 20.7809 	 5.4634 	 2.3100
  0.3700 	 1.5400 	 10.2007 	 8.2279 	 1.3756 	 63.5236 	 1.7172 	 58.2225 	 20.0903 	 5.3011 	 2.3100
  0.3700 	 1.5450 	 10.2032 	 8.2269 	 1.3725 	 63.4314 	 1.7160 	 58.2992 	 19.3801 	 5.1323 	 2.3100
  0.3700 	 1.5500 	 10.2058 	 8.2259 	 1.3694 	 63.3317 	 1.7149 	 58.3755 	 18.6480 	 4.9562 	 2.3100
  0.3700 	 1.5550 	 10.2084 	 8.2248 	 1.3663 	 63.2236 	 1.7137 	 58.4514 	 17.8913 	 4.7722 	 2.3100
  0.3700 	 1.5600 	 10.2109 	 8.2238 	 1.3632 	 63.1062 	 1.7125 	 58.5270 	 17.1067 	 4.5792 	 2.3100
  0.3700 	 1.5650 	 10.2134 	 8.2228 	 1.3602 	 62.9782 	 1.7113 	 58.6021 	 16.2901 	 4.3761 	 2.3100
  0.3700 	 1.5700 	 10.2159 	 8.2218 	 1.3571 	 62.8383 	 1.7102 	 58.6769 	 15.4363 	 4.1614 	 2.3100
  0.3700 	 1.5750 	 10.2184 	 8.2208 	 1.3541 	 62.6846 	 1.7091 	 58.7513 	 14.5388 	 3.9333 	 2.3100
  0.3700 	 1.5800 	 10.2209 	 8.2198 	 1.3511 	 62.5144 	 1.7079 	 58.8253 	 13.5888 	 3.6891 	 2.3100
  0.3700 	 1.5850 	 10.2234 	 8.2188 	 1.3481 	 62.3246 	 1.7068 	 58.8990 	 12.5744 	 3.4256 	 2.3100
  0.3700 	 1.5900 	 10.2258 	 8.2178 	 1.3451 	 62.1101 	 1.7057 	 58.9723 	 11.4784 	 3.1379 	 2.3100
  0.3700 	 1.5950 	 10.2282 	 8.2168 	 1.3422 	 61.8637 	 1.7046 	 59.0452 	 10.2746 	 2.8185 	 2.3100
  0.3700 	 1.6000 	 10.2306 	 8.2159 	 1.3392 	 61.5729 	 1.7035 	 59.1178 	 8.9195 	 2.4551 	 2.3100
  0.3700 	 1.6050 	 10.2330 	 8.2149 	 1.3363 	 61.2143 	 1.7024 	 59.1900 	 7.3295 	 2.0243 	 2.3100
  0.3700 	 1.6100 	 10.2354 	 8.2139 	 1.3334 	 60.7297 	 1.7014 	 59.2618 	 5.2969 	 1.4679 	 2.3100
  0.3700 	 1.4000 	 10.1169 	 8.2799 	 1.4759 	 64.2486 	 1.7606 	 55.8427 	 35.6702 	 8.4059 	 2.3200
  0.3700 	 1.4050 	 10.1201 	 8.2786 	 1.4722 	 64.2585 	 1.7591 	 55.9316 	 35.1852 	 8.3269 	 2.3200
  0.3700 	 1.4100 	 10.1232 	 8.2773 	 1.4685 	 64.2661 	 1.7575 	 56.0200 	 34.6970 	 8.2461 	 2.3200
  0.3700 	 1.4150 	 10.1263 	 8.2760 	 1.4648 	 64.2715 	 1.7560 	 56.1079 	 34.2056 	 8.1636 	 2.3200
  0.3700 	 1.4200 	 10.1294 	 8.2748 	 1.4611 	 64.2745 	 1.7544 	 56.1954 	 33.7108 	 8.0791 	 2.3200
  0.3700 	 1.4250 	 10.1324 	 8.2735 	 1.4575 	 64.2751 	 1.7529 	 56.2824 	 33.2124 	 7.9928 	 2.3200
  0.3700 	 1.4300 	 10.1354 	 8.2723 	 1.4539 	 64.2734 	 1.7514 	 56.3689 	 32.7101 	 7.9045 	 2.3200
  0.3700 	 1.4350 	 10.1385 	 8.2711 	 1.4503 	 64.2691 	 1.7499 	 56.4550 	 32.2038 	 7.8141 	 2.3200
  0.3700 	 1.4400 	 10.1414 	 8.2698 	 1.4468 	 64.2622 	 1.7485 	 56.5406 	 31.6932 	 7.7217 	 2.3200
  0.3700 	 1.4450 	 10.1444 	 8.2686 	 1.4432 	 64.2528 	 1.7470 	 56.6257 	 31.1781 	 7.6270 	 2.3200
  0.3700 	 1.4500 	 10.1474 	 8.2674 	 1.4397 	 64.2406 	 1.7456 	 56.7105 	 30.6582 	 7.5302 	 2.3200
  0.3700 	 1.4550 	 10.1503 	 8.2662 	 1.4362 	 64.2257 	 1.7441 	 56.7947 	 30.1333 	 7.4309 	 2.3200
  0.3700 	 1.4600 	 10.1532 	 8.2650 	 1.4327 	 64.2079 	 1.7427 	 56.8786 	 29.6029 	 7.3293 	 2.3200
  0.3700 	 1.4650 	 10.1561 	 8.2639 	 1.4293 	 64.1871 	 1.7413 	 56.9620 	 29.0668 	 7.2252 	 2.3200
  0.3700 	 1.4700 	 10.1590 	 8.2627 	 1.4258 	 64.1633 	 1.7399 	 57.0449 	 28.5245 	 7.1184 	 2.3200
  0.3700 	 1.4750 	 10.1618 	 8.2615 	 1.4224 	 64.1363 	 1.7385 	 57.1275 	 27.9758 	 7.0089 	 2.3200
  0.3700 	 1.4800 	 10.1647 	 8.2604 	 1.4190 	 64.1060 	 1.7372 	 57.2096 	 27.4202 	 6.8965 	 2.3200
  0.3700 	 1.4850 	 10.1675 	 8.2592 	 1.4156 	 64.0723 	 1.7358 	 57.2912 	 26.8572 	 6.7811 	 2.3200
  0.3700 	 1.4900 	 10.1703 	 8.2581 	 1.4123 	 64.0351 	 1.7345 	 57.3725 	 26.2862 	 6.6626 	 2.3200
  0.3700 	 1.4950 	 10.1730 	 8.2570 	 1.4090 	 63.9940 	 1.7332 	 57.4533 	 25.7068 	 6.5407 	 2.3200
  0.3700 	 1.5000 	 10.1758 	 8.2559 	 1.4056 	 63.9491 	 1.7319 	 57.5337 	 25.1183 	 6.4154 	 2.3200
  0.3700 	 1.5050 	 10.1785 	 8.2547 	 1.4024 	 63.9001 	 1.7306 	 57.6137 	 24.5199 	 6.2863 	 2.3200
  0.3700 	 1.5100 	 10.1812 	 8.2536 	 1.3991 	 63.8467 	 1.7293 	 57.6933 	 23.9110 	 6.1533 	 2.3200
  0.3700 	 1.5150 	 10.1840 	 8.2525 	 1.3958 	 63.7887 	 1.7280 	 57.7725 	 23.2905 	 6.0162 	 2.3200
  0.3700 	 1.5200 	 10.1866 	 8.2515 	 1.3926 	 63.7259 	 1.7267 	 57.8513 	 22.6577 	 5.8746 	 2.3200
  0.3700 	 1.5250 	 10.1893 	 8.2504 	 1.3894 	 63.6578 	 1.7255 	 57.9297 	 22.0112 	 5.7282 	 2.3200
  0.3700 	 1.5300 	 10.1920 	 8.2493 	 1.3862 	 63.5842 	 1.7242 	 58.0076 	 21.3499 	 5.5766 	 2.3200
  0.3700 	 1.5350 	 10.1946 	 8.2482 	 1.3830 	 63.5046 	 1.7230 	 58.0852 	 20.6722 	 5.4194 	 2.3200
  0.3700 	 1.5400 	 10.1972 	 8.2472 	 1.3798 	 63.4186 	 1.7218 	 58.1624 	 19.9765 	 5.2562 	 2.3200
  0.3700 	 1.5450 	 10.1998 	 8.2461 	 1.3767 	 63.3255 	 1.7206 	 58.2392 	 19.2608 	 5.0863 	 2.3200
  0.3700 	 1.5500 	 10.2024 	 8.2451 	 1.3736 	 63.2246 	 1.7194 	 58.3156 	 18.5226 	 4.9090 	 2.3200
  0.3700 	 1.5550 	 10.2049 	 8.2440 	 1.3705 	 63.1152 	 1.7182 	 58.3916 	 17.7591 	 4.7236 	 2.3200
  0.3700 	 1.5600 	 10.2075 	 8.2430 	 1.3674 	 62.9963 	 1.7170 	 58.4672 	 16.9669 	 4.5290 	 2.3200
  0.3700 	 1.5650 	 10.2100 	 8.2420 	 1.3643 	 62.8666 	 1.7158 	 58.5425 	 16.1417 	 4.3241 	 2.3200
  0.3700 	 1.5700 	 10.2125 	 8.2410 	 1.3612 	 62.7246 	 1.7147 	 58.6174 	 15.2780 	 4.1072 	 2.3200
  0.3700 	 1.5750 	 10.2150 	 8.2400 	 1.3582 	 62.5683 	 1.7135 	 58.6919 	 14.3688 	 3.8764 	 2.3200
  0.3700 	 1.5800 	 10.2175 	 8.2389 	 1.3552 	 62.3950 	 1.7124 	 58.7660 	 13.4050 	 3.6290 	 2.3200
  0.3700 	 1.5850 	 10.2200 	 8.2380 	 1.3522 	 62.2012 	 1.7113 	 58.8397 	 12.3735 	 3.3615 	 2.3200
  0.3700 	 1.5900 	 10.2224 	 8.2370 	 1.3492 	 61.9815 	 1.7101 	 58.9131 	 11.2558 	 3.0684 	 2.3200
  0.3700 	 1.5950 	 10.2249 	 8.2360 	 1.3462 	 61.7279 	 1.7090 	 58.9861 	 10.0229 	 2.7417 	 2.3200
  0.3700 	 1.6000 	 10.2273 	 8.2350 	 1.3433 	 61.4264 	 1.7079 	 59.0588 	 8.6255 	 2.3676 	 2.3200
  0.3700 	 1.6050 	 10.2297 	 8.2340 	 1.3403 	 61.0495 	 1.7069 	 59.1311 	 6.9653 	 1.9184 	 2.3200
  0.3700 	 1.4000 	 10.1131 	 8.2993 	 1.4804 	 64.1516 	 1.7654 	 55.7801 	 35.6285 	 8.3715 	 2.3300
  0.3700 	 1.4050 	 10.1163 	 8.2980 	 1.4767 	 64.1615 	 1.7638 	 55.8691 	 35.1420 	 8.2924 	 2.3300
  0.3700 	 1.4100 	 10.1194 	 8.2967 	 1.4730 	 64.1691 	 1.7622 	 55.9576 	 34.6523 	 8.2115 	 2.3300
  0.3700 	 1.4150 	 10.1225 	 8.2954 	 1.4693 	 64.1744 	 1.7607 	 56.0456 	 34.1594 	 8.1288 	 2.3300
  0.3700 	 1.4200 	 10.1256 	 8.2942 	 1.4656 	 64.1774 	 1.7591 	 56.1331 	 33.6630 	 8.0443 	 2.3300
  0.3700 	 1.4250 	 10.1287 	 8.2929 	 1.4620 	 64.1780 	 1.7576 	 56.2202 	 33.1630 	 7.9578 	 2.3300
  0.3700 	 1.4300 	 10.1317 	 8.2917 	 1.4583 	 64.1761 	 1.7561 	 56.3069 	 32.6591 	 7.8693 	 2.3300
  0.3700 	 1.4350 	 10.1347 	 8.2904 	 1.4547 	 64.1718 	 1.7546 	 56.3930 	 32.1510 	 7.7788 	 2.3300
  0.3700 	 1.4400 	 10.1377 	 8.2892 	 1.4512 	 64.1649 	 1.7531 	 56.4787 	 31.6387 	 7.6861 	 2.3300
  0.3700 	 1.4450 	 10.1407 	 8.2880 	 1.4476 	 64.1553 	 1.7517 	 56.5640 	 31.1217 	 7.5913 	 2.3300
  0.3700 	 1.4500 	 10.1437 	 8.2868 	 1.4441 	 64.1430 	 1.7502 	 56.6488 	 30.5999 	 7.4942 	 2.3300
  0.3700 	 1.4550 	 10.1466 	 8.2856 	 1.4406 	 64.1280 	 1.7488 	 56.7332 	 30.0730 	 7.3948 	 2.3300
  0.3700 	 1.4600 	 10.1496 	 8.2844 	 1.4371 	 64.1100 	 1.7474 	 56.8171 	 29.5406 	 7.2929 	 2.3300
  0.3700 	 1.4650 	 10.1525 	 8.2832 	 1.4336 	 64.0891 	 1.7459 	 56.9006 	 29.0023 	 7.1885 	 2.3300
  0.3700 	 1.4700 	 10.1553 	 8.2820 	 1.4302 	 64.0651 	 1.7445 	 56.9837 	 28.4579 	 7.0814 	 2.3300
  0.3700 	 1.4750 	 10.1582 	 8.2808 	 1.4267 	 64.0379 	 1.7432 	 57.0663 	 27.9069 	 6.9716 	 2.3300
  0.3700 	 1.4800 	 10.1611 	 8.2797 	 1.4233 	 64.0074 	 1.7418 	 57.1485 	 27.3488 	 6.8589 	 2.3300
  0.3700 	 1.4850 	 10.1639 	 8.2785 	 1.4199 	 63.9734 	 1.7404 	 57.2303 	 26.7833 	 6.7431 	 2.3300
  0.3700 	 1.4900 	 10.1667 	 8.2774 	 1.4166 	 63.9358 	 1.7391 	 57.3116 	 26.2097 	 6.6242 	 2.3300
  0.3700 	 1.4950 	 10.1695 	 8.2762 	 1.4132 	 63.8945 	 1.7378 	 57.3926 	 25.6274 	 6.5020 	 2.3300
  0.3700 	 1.5000 	 10.1722 	 8.2751 	 1.4099 	 63.8492 	 1.7364 	 57.4731 	 25.0359 	 6.3762 	 2.3300
  0.3700 	 1.5050 	 10.1750 	 8.2740 	 1.4066 	 63.7998 	 1.7351 	 57.5532 	 24.4345 	 6.2466 	 2.3300
  0.3700 	 1.5100 	 10.1777 	 8.2729 	 1.4033 	 63.7460 	 1.7338 	 57.6328 	 23.8222 	 6.1131 	 2.3300
  0.3700 	 1.5150 	 10.1804 	 8.2718 	 1.4001 	 63.6875 	 1.7325 	 57.7121 	 23.1983 	 5.9754 	 2.3300
  0.3700 	 1.5200 	 10.1831 	 8.2707 	 1.3968 	 63.6241 	 1.7313 	 57.7910 	 22.5616 	 5.8331 	 2.3300
  0.3700 	 1.5250 	 10.1858 	 8.2696 	 1.3936 	 63.5555 	 1.7300 	 57.8695 	 21.9111 	 5.6860 	 2.3300
  0.3700 	 1.5300 	 10.1885 	 8.2685 	 1.3904 	 63.4812 	 1.7288 	 57.9475 	 21.2455 	 5.5337 	 2.3300
  0.3700 	 1.5350 	 10.1911 	 8.2674 	 1.3872 	 63.4008 	 1.7275 	 58.0252 	 20.5631 	 5.3756 	 2.3300
  0.3700 	 1.5400 	 10.1937 	 8.2664 	 1.3840 	 63.3139 	 1.7263 	 58.1025 	 19.8623 	 5.2114 	 2.3300
  0.3700 	 1.5450 	 10.1963 	 8.2653 	 1.3809 	 63.2198 	 1.7251 	 58.1794 	 19.1409 	 5.0404 	 2.3300
  0.3700 	 1.5500 	 10.1989 	 8.2642 	 1.3777 	 63.1178 	 1.7239 	 58.2559 	 18.3965 	 4.8619 	 2.3300
  0.3700 	 1.5550 	 10.2015 	 8.2632 	 1.3746 	 63.0071 	 1.7227 	 58.3320 	 17.6261 	 4.6751 	 2.3300
  0.3700 	 1.5600 	 10.2041 	 8.2622 	 1.3715 	 62.8866 	 1.7215 	 58.4077 	 16.8262 	 4.4789 	 2.3300
  0.3700 	 1.5650 	 10.2066 	 8.2611 	 1.3684 	 62.7551 	 1.7203 	 58.4830 	 15.9921 	 4.2720 	 2.3300
  0.3700 	 1.5700 	 10.2091 	 8.2601 	 1.3654 	 62.6109 	 1.7191 	 58.5580 	 15.1182 	 4.0529 	 2.3300
  0.3700 	 1.5750 	 10.2117 	 8.2591 	 1.3623 	 62.4520 	 1.7180 	 58.6326 	 14.1971 	 3.8194 	 2.3300
  0.3700 	 1.5800 	 10.2141 	 8.2581 	 1.3593 	 62.2755 	 1.7168 	 58.7068 	 13.2189 	 3.5687 	 2.3300
  0.3700 	 1.5850 	 10.2166 	 8.2571 	 1.3563 	 62.0775 	 1.7157 	 58.7807 	 12.1696 	 3.2969 	 2.3300
  0.3700 	 1.5900 	 10.2191 	 8.2561 	 1.3533 	 61.8524 	 1.7146 	 58.8541 	 11.0291 	 2.9982 	 2.3300
  0.3700 	 1.5950 	 10.2215 	 8.2551 	 1.3503 	 61.5911 	 1.7135 	 58.9273 	 9.7651 	 2.6638 	 2.3300
  0.3700 	 1.6000 	 10.2240 	 8.2541 	 1.3473 	 61.2779 	 1.7124 	 59.0000 	 8.3217 	 2.2779 	 2.3300
  0.3700 	 1.6050 	 10.2264 	 8.2531 	 1.3444 	 60.8801 	 1.7113 	 59.0724 	 6.5816 	 1.8077 	 2.3300
  0.3700 	 1.4000 	 10.1093 	 8.3187 	 1.4849 	 64.0551 	 1.7701 	 55.7177 	 35.5867 	 8.3374 	 2.3400
  0.3700 	 1.4050 	 10.1125 	 8.3174 	 1.4812 	 64.0649 	 1.7685 	 55.8068 	 35.0987 	 8.2581 	 2.3400
  0.3700 	 1.4100 	 10.1156 	 8.3161 	 1.4774 	 64.0725 	 1.7670 	 55.8954 	 34.6076 	 8.1771 	 2.3400
  0.3700 	 1.4150 	 10.1187 	 8.3148 	 1.4737 	 64.0778 	 1.7654 	 55.9835 	 34.1132 	 8.0943 	 2.3400
  0.3700 	 1.4200 	 10.1218 	 8.3135 	 1.4701 	 64.0807 	 1.7638 	 56.0711 	 33.6152 	 8.0096 	 2.3400
  0.3700 	 1.4250 	 10.1249 	 8.3123 	 1.4664 	 64.0813 	 1.7623 	 56.1583 	 33.1135 	 7.9230 	 2.3400
  0.3700 	 1.4300 	 10.1280 	 8.3110 	 1.4628 	 64.0793 	 1.7608 	 56.2450 	 32.6080 	 7.8343 	 2.3400
  0.3700 	 1.4350 	 10.1310 	 8.3098 	 1.4592 	 64.0749 	 1.7593 	 56.3313 	 32.0982 	 7.7436 	 2.3400
  0.3700 	 1.4400 	 10.1340 	 8.3085 	 1.4556 	 64.0679 	 1.7578 	 56.4171 	 31.5841 	 7.6508 	 2.3400
  0.3700 	 1.4450 	 10.1370 	 8.3073 	 1.4520 	 64.0582 	 1.7563 	 56.5025 	 31.0653 	 7.5558 	 2.3400
  0.3700 	 1.4500 	 10.1400 	 8.3061 	 1.4485 	 64.0458 	 1.7549 	 56.5874 	 30.5416 	 7.4585 	 2.3400
  0.3700 	 1.4550 	 10.1430 	 8.3049 	 1.4449 	 64.0306 	 1.7534 	 56.6718 	 30.0127 	 7.3588 	 2.3400
  0.3700 	 1.4600 	 10.1459 	 8.3036 	 1.4414 	 64.0125 	 1.7520 	 56.7559 	 29.4782 	 7.2567 	 2.3400
  0.3700 	 1.4650 	 10.1488 	 8.3025 	 1.4380 	 63.9914 	 1.7506 	 56.8394 	 28.9378 	 7.1520 	 2.3400
  0.3700 	 1.4700 	 10.1517 	 8.3013 	 1.4345 	 63.9672 	 1.7492 	 56.9226 	 28.3912 	 7.0446 	 2.3400
  0.3700 	 1.4750 	 10.1546 	 8.3001 	 1.4311 	 63.9398 	 1.7478 	 57.0053 	 27.8378 	 6.9345 	 2.3400
  0.3700 	 1.4800 	 10.1575 	 8.2989 	 1.4276 	 63.9091 	 1.7464 	 57.0876 	 27.2773 	 6.8215 	 2.3400
  0.3700 	 1.4850 	 10.1603 	 8.2978 	 1.4242 	 63.8749 	 1.7450 	 57.1695 	 26.7092 	 6.7054 	 2.3400
  0.3700 	 1.4900 	 10.1631 	 8.2966 	 1.4209 	 63.8370 	 1.7437 	 57.2509 	 26.1330 	 6.5861 	 2.3400
  0.3700 	 1.4950 	 10.1659 	 8.2955 	 1.4175 	 63.7954 	 1.7423 	 57.3320 	 25.5479 	 6.4634 	 2.3400
  0.3700 	 1.5000 	 10.1687 	 8.2943 	 1.4142 	 63.7497 	 1.7410 	 57.4126 	 24.9535 	 6.3372 	 2.3400
  0.3700 	 1.5050 	 10.1714 	 8.2932 	 1.4109 	 63.6999 	 1.7397 	 57.4928 	 24.3489 	 6.2072 	 2.3400
  0.3700 	 1.5100 	 10.1742 	 8.2921 	 1.4076 	 63.6456 	 1.7384 	 57.5725 	 23.7333 	 6.0731 	 2.3400
  0.3700 	 1.5150 	 10.1769 	 8.2910 	 1.4043 	 63.5867 	 1.7371 	 57.6519 	 23.1058 	 5.9348 	 2.3400
  0.3700 	 1.5200 	 10.1796 	 8.2899 	 1.4010 	 63.5228 	 1.7358 	 57.7309 	 22.4653 	 5.7919 	 2.3400
  0.3700 	 1.5250 	 10.1823 	 8.2888 	 1.3978 	 63.4535 	 1.7345 	 57.8094 	 21.8107 	 5.6440 	 2.3400
  0.3700 	 1.5300 	 10.1850 	 8.2877 	 1.3946 	 63.3785 	 1.7333 	 57.8876 	 21.1407 	 5.4909 	 2.3400
  0.3700 	 1.5350 	 10.1876 	 8.2866 	 1.3914 	 63.2974 	 1.7320 	 57.9654 	 20.4536 	 5.3320 	 2.3400
  0.3700 	 1.5400 	 10.1903 	 8.2855 	 1.3882 	 63.2095 	 1.7308 	 58.0427 	 19.7475 	 5.1668 	 2.3400
  0.3700 	 1.5450 	 10.1929 	 8.2845 	 1.3850 	 63.1144 	 1.7296 	 58.1197 	 19.0205 	 4.9947 	 2.3400
  0.3700 	 1.5500 	 10.1955 	 8.2834 	 1.3819 	 63.0112 	 1.7284 	 58.1963 	 18.2698 	 4.8149 	 2.3400
  0.3700 	 1.5550 	 10.1981 	 8.2823 	 1.3788 	 62.8992 	 1.7272 	 58.2725 	 17.4924 	 4.6267 	 2.3400
  0.3700 	 1.5600 	 10.2007 	 8.2813 	 1.3756 	 62.7771 	 1.7260 	 58.3483 	 16.6845 	 4.4288 	 2.3400
  0.3700 	 1.5650 	 10.2032 	 8.2803 	 1.3726 	 62.6438 	 1.7248 	 58.4238 	 15.8414 	 4.2200 	 2.3400
  0.3700 	 1.5700 	 10.2057 	 8.2792 	 1.3695 	 62.4974 	 1.7236 	 58.4988 	 14.9570 	 3.9985 	 2.3400
  0.3700 	 1.5750 	 10.2083 	 8.2782 	 1.3664 	 62.3357 	 1.7225 	 58.5735 	 14.0236 	 3.7622 	 2.3400
  0.3700 	 1.5800 	 10.2108 	 8.2772 	 1.3634 	 62.1559 	 1.7213 	 58.6478 	 13.0304 	 3.5080 	 2.3400
  0.3700 	 1.5850 	 10.2133 	 8.2762 	 1.3604 	 61.9536 	 1.7202 	 58.7218 	 11.9626 	 3.2318 	 2.3400
  0.3700 	 1.5900 	 10.2157 	 8.2752 	 1.3574 	 61.7226 	 1.7190 	 58.7953 	 10.7980 	 2.9273 	 2.3400
  0.3700 	 1.5950 	 10.2182 	 8.2742 	 1.3544 	 61.4531 	 1.7179 	 58.8685 	 9.5008 	 2.5845 	 2.3400
  0.3700 	 1.6000 	 10.2206 	 8.2732 	 1.3514 	 61.1270 	 1.7168 	 58.9414 	 8.0069 	 2.1856 	 2.3400
  0.3700 	 1.6050 	 10.2231 	 8.2722 	 1.3484 	 60.7052 	 1.7157 	 59.0139 	 6.1750 	 1.6913 	 2.3400
  0.3700 	 1.4000 	 10.1055 	 8.3381 	 1.4894 	 63.9589 	 1.7749 	 55.6555 	 35.5449 	 8.3035 	 2.3500
  0.3700 	 1.4050 	 10.1087 	 8.3367 	 1.4857 	 63.9687 	 1.7733 	 55.7446 	 35.0554 	 8.2241 	 2.3500
  0.3700 	 1.4100 	 10.1118 	 8.3354 	 1.4819 	 63.9763 	 1.7717 	 55.8333 	 34.5628 	 8.1430 	 2.3500
  0.3700 	 1.4150 	 10.1150 	 8.3341 	 1.4782 	 63.9815 	 1.7701 	 55.9215 	 34.0669 	 8.0600 	 2.3500
  0.3700 	 1.4200 	 10.1181 	 8.3329 	 1.4745 	 63.9844 	 1.7685 	 56.0093 	 33.5674 	 7.9752 	 2.3500
  0.3700 	 1.4250 	 10.1212 	 8.3316 	 1.4708 	 63.9849 	 1.7670 	 56.0965 	 33.0641 	 7.8884 	 2.3500
  0.3700 	 1.4300 	 10.1243 	 8.3303 	 1.4672 	 63.9829 	 1.7655 	 56.1834 	 32.5568 	 7.7996 	 2.3500
  0.3700 	 1.4350 	 10.1273 	 8.3291 	 1.4636 	 63.9784 	 1.7640 	 56.2697 	 32.0454 	 7.7087 	 2.3500
  0.3700 	 1.4400 	 10.1303 	 8.3278 	 1.4600 	 63.9713 	 1.7625 	 56.3556 	 31.5294 	 7.6157 	 2.3500
  0.3700 	 1.4450 	 10.1334 	 8.3266 	 1.4564 	 63.9615 	 1.7610 	 56.4411 	 31.0088 	 7.5205 	 2.3500
  0.3700 	 1.4500 	 10.1363 	 8.3253 	 1.4528 	 63.9490 	 1.7595 	 56.5261 	 30.4832 	 7.4229 	 2.3500
  0.3700 	 1.4550 	 10.1393 	 8.3241 	 1.4493 	 63.9337 	 1.7581 	 56.6107 	 29.9523 	 7.3230 	 2.3500
  0.3700 	 1.4600 	 10.1423 	 8.3229 	 1.4458 	 63.9155 	 1.7566 	 56.6948 	 29.4158 	 7.2207 	 2.3500
  0.3700 	 1.4650 	 10.1452 	 8.3217 	 1.4423 	 63.8942 	 1.7552 	 56.7785 	 28.8732 	 7.1157 	 2.3500
  0.3700 	 1.4700 	 10.1481 	 8.3205 	 1.4388 	 63.8698 	 1.7538 	 56.8617 	 28.3243 	 7.0081 	 2.3500
  0.3700 	 1.4750 	 10.1510 	 8.3193 	 1.4354 	 63.8422 	 1.7524 	 56.9445 	 27.7687 	 6.8977 	 2.3500
  0.3700 	 1.4800 	 10.1538 	 8.3181 	 1.4320 	 63.8112 	 1.7510 	 57.0269 	 27.2058 	 6.7843 	 2.3500
  0.3700 	 1.4850 	 10.1567 	 8.3170 	 1.4285 	 63.7767 	 1.7496 	 57.1089 	 26.6351 	 6.6679 	 2.3500
  0.3700 	 1.4900 	 10.1595 	 8.3158 	 1.4252 	 63.7386 	 1.7483 	 57.1904 	 26.0561 	 6.5482 	 2.3500
  0.3700 	 1.4950 	 10.1623 	 8.3147 	 1.4218 	 63.6966 	 1.7469 	 57.2715 	 25.4683 	 6.4251 	 2.3500
  0.3700 	 1.5000 	 10.1651 	 8.3135 	 1.4184 	 63.6506 	 1.7456 	 57.3522 	 24.8708 	 6.2984 	 2.3500
  0.3700 	 1.5050 	 10.1679 	 8.3124 	 1.4151 	 63.6004 	 1.7442 	 57.4325 	 24.2631 	 6.1679 	 2.3500
  0.3700 	 1.5100 	 10.1707 	 8.3113 	 1.4118 	 63.5457 	 1.7429 	 57.5124 	 23.6441 	 6.0333 	 2.3500
  0.3700 	 1.5150 	 10.1734 	 8.3101 	 1.4085 	 63.4862 	 1.7416 	 57.5919 	 23.0130 	 5.8944 	 2.3500
  0.3700 	 1.5200 	 10.1761 	 8.3090 	 1.4053 	 63.4217 	 1.7403 	 57.6709 	 22.3687 	 5.7508 	 2.3500
  0.3700 	 1.5250 	 10.1788 	 8.3079 	 1.4020 	 63.3518 	 1.7391 	 57.7496 	 21.7101 	 5.6023 	 2.3500
  0.3700 	 1.5300 	 10.1815 	 8.3068 	 1.3988 	 63.2762 	 1.7378 	 57.8278 	 21.0355 	 5.4483 	 2.3500
  0.3700 	 1.5350 	 10.1842 	 8.3057 	 1.3956 	 63.1942 	 1.7365 	 57.9057 	 20.3436 	 5.2885 	 2.3500
  0.3700 	 1.5400 	 10.1868 	 8.3046 	 1.3924 	 63.1055 	 1.7353 	 57.9832 	 19.6323 	 5.1223 	 2.3500
  0.3700 	 1.5450 	 10.1894 	 8.3036 	 1.3892 	 63.0093 	 1.7341 	 58.0602 	 18.8995 	 4.9491 	 2.3500
  0.3700 	 1.5500 	 10.1921 	 8.3025 	 1.3860 	 62.9050 	 1.7328 	 58.1369 	 18.1424 	 4.7680 	 2.3500
  0.3700 	 1.5550 	 10.1947 	 8.3014 	 1.3829 	 62.7915 	 1.7316 	 58.2132 	 17.3578 	 4.5783 	 2.3500
  0.3700 	 1.5600 	 10.1972 	 8.3004 	 1.3798 	 62.6679 	 1.7304 	 58.2891 	 16.5418 	 4.3787 	 2.3500
  0.3700 	 1.5650 	 10.1998 	 8.2993 	 1.3767 	 62.5326 	 1.7293 	 58.3647 	 15.6895 	 4.1679 	 2.3500
  0.3700 	 1.5700 	 10.2024 	 8.2983 	 1.3736 	 62.3839 	 1.7281 	 58.4398 	 14.7944 	 3.9441 	 2.3500
  0.3700 	 1.5750 	 10.2049 	 8.2973 	 1.3705 	 62.2195 	 1.7269 	 58.5146 	 13.8482 	 3.7049 	 2.3500
  0.3700 	 1.5800 	 10.2074 	 8.2963 	 1.3675 	 62.0361 	 1.7257 	 58.5890 	 12.8396 	 3.4471 	 2.3500
  0.3700 	 1.5850 	 10.2099 	 8.2952 	 1.3644 	 61.8293 	 1.7246 	 58.6630 	 11.7524 	 3.1662 	 2.3500
  0.3700 	 1.5900 	 10.2124 	 8.2942 	 1.3614 	 61.5922 	 1.7235 	 58.7367 	 10.5622 	 2.8555 	 2.3500
  0.3700 	 1.5950 	 10.2149 	 8.2932 	 1.3584 	 61.3138 	 1.7223 	 58.8100 	 9.2294 	 2.5038 	 2.3500
  0.3700 	 1.6000 	 10.2173 	 8.2922 	 1.3554 	 60.9735 	 1.7212 	 58.8829 	 7.6798 	 2.0906 	 2.3500
  0.3700 	 1.6050 	 10.2197 	 8.2912 	 1.3525 	 60.5235 	 1.7201 	 58.9555 	 5.7403 	 1.5680 	 2.3500
  0.3700 	 1.3950 	 10.0985 	 8.3587 	 1.4977 	 63.8512 	 1.7812 	 55.5037 	 35.9908 	 8.3475 	 2.3600
  0.3700 	 1.4000 	 10.1017 	 8.3574 	 1.4939 	 63.8632 	 1.7796 	 55.5934 	 35.5030 	 8.2698 	 2.3600
  0.3700 	 1.4050 	 10.1049 	 8.3561 	 1.4901 	 63.8730 	 1.7780 	 55.6827 	 35.0122 	 8.1903 	 2.3600
  0.3700 	 1.4100 	 10.1081 	 8.3547 	 1.4864 	 63.8805 	 1.7764 	 55.7715 	 34.5181 	 8.1091 	 2.3600
  0.3700 	 1.4150 	 10.1112 	 8.3534 	 1.4827 	 63.8857 	 1.7748 	 55.8598 	 34.0206 	 8.0260 	 2.3600
  0.3700 	 1.4200 	 10.1143 	 8.3521 	 1.4790 	 63.8886 	 1.7732 	 55.9476 	 33.5195 	 7.9410 	 2.3600
  0.3700 	 1.4250 	 10.1175 	 8.3509 	 1.4753 	 63.8890 	 1.7717 	 56.0350 	 33.0146 	 7.8540 	 2.3600
  0.3700 	 1.4300 	 10.1205 	 8.3496 	 1.4716 	 63.8869 	 1.7702 	 56.1219 	 32.5056 	 7.7650 	 2.3600
  0.3700 	 1.4350 	 10.1236 	 8.3483 	 1.4680 	 63.8823 	 1.7686 	 56.2083 	 31.9925 	 7.6740 	 2.3600
  0.3700 	 1.4400 	 10.1266 	 8.3471 	 1.4644 	 63.8751 	 1.7671 	 56.2943 	 31.4748 	 7.5808 	 2.3600
  0.3700 	 1.4450 	 10.1297 	 8.3458 	 1.4608 	 63.8653 	 1.7656 	 56.3799 	 30.9523 	 7.4854 	 2.3600
  0.3700 	 1.4500 	 10.1327 	 8.3446 	 1.4572 	 63.8526 	 1.7642 	 56.4650 	 30.4248 	 7.3876 	 2.3600
  0.3700 	 1.4550 	 10.1356 	 8.3433 	 1.4537 	 63.8372 	 1.7627 	 56.5496 	 29.8919 	 7.2875 	 2.3600
  0.3700 	 1.4600 	 10.1386 	 8.3421 	 1.4501 	 63.8188 	 1.7612 	 56.6339 	 29.3533 	 7.1849 	 2.3600
  0.3700 	 1.4650 	 10.1415 	 8.3409 	 1.4466 	 63.7973 	 1.7598 	 56.7176 	 28.8086 	 7.0797 	 2.3600
  0.3700 	 1.4700 	 10.1445 	 8.3397 	 1.4432 	 63.7728 	 1.7584 	 56.8010 	 28.2575 	 6.9718 	 2.3600
  0.3700 	 1.4750 	 10.1474 	 8.3385 	 1.4397 	 63.7449 	 1.7570 	 56.8839 	 27.6995 	 6.8610 	 2.3600
  0.3700 	 1.4800 	 10.1502 	 8.3373 	 1.4363 	 63.7137 	 1.7556 	 56.9664 	 27.1341 	 6.7473 	 2.3600
  0.3700 	 1.4850 	 10.1531 	 8.3362 	 1.4328 	 63.6790 	 1.7542 	 57.0484 	 26.5609 	 6.6305 	 2.3600
  0.3700 	 1.4900 	 10.1560 	 8.3350 	 1.4294 	 63.6406 	 1.7528 	 57.1301 	 25.9792 	 6.5105 	 2.3600
  0.3700 	 1.4950 	 10.1588 	 8.3338 	 1.4261 	 63.5983 	 1.7515 	 57.2113 	 25.3885 	 6.3870 	 2.3600
  0.3700 	 1.5000 	 10.1616 	 8.3327 	 1.4227 	 63.5519 	 1.7501 	 57.2921 	 24.7880 	 6.2598 	 2.3600
  0.3700 	 1.5050 	 10.1644 	 8.3315 	 1.4194 	 63.5013 	 1.7488 	 57.3725 	 24.1771 	 6.1288 	 2.3600
  0.3700 	 1.5100 	 10.1671 	 8.3304 	 1.4160 	 63.4461 	 1.7475 	 57.4524 	 23.5547 	 5.9937 	 2.3600
  0.3700 	 1.5150 	 10.1699 	 8.3293 	 1.4127 	 63.3861 	 1.7462 	 57.5320 	 22.9200 	 5.8541 	 2.3600
  0.3700 	 1.5200 	 10.1726 	 8.3281 	 1.4095 	 63.3211 	 1.7449 	 57.6111 	 22.2719 	 5.7099 	 2.3600
  0.3700 	 1.5250 	 10.1753 	 8.3270 	 1.4062 	 63.2505 	 1.7436 	 57.6899 	 21.6091 	 5.5606 	 2.3600
  0.3700 	 1.5300 	 10.1780 	 8.3259 	 1.4030 	 63.1741 	 1.7423 	 57.7683 	 20.9301 	 5.4059 	 2.3600
  0.3700 	 1.5350 	 10.1807 	 8.3248 	 1.3997 	 63.0914 	 1.7411 	 57.8462 	 20.2332 	 5.2452 	 2.3600
  0.3700 	 1.5400 	 10.1834 	 8.3237 	 1.3965 	 63.0017 	 1.7398 	 57.9238 	 19.5166 	 5.0780 	 2.3600
  0.3700 	 1.5450 	 10.1860 	 8.3227 	 1.3934 	 62.9045 	 1.7386 	 58.0009 	 18.7779 	 4.9036 	 2.3600
  0.3700 	 1.5500 	 10.1886 	 8.3216 	 1.3902 	 62.7990 	 1.7373 	 58.0777 	 18.0143 	 4.7213 	 2.3600
  0.3700 	 1.5550 	 10.1912 	 8.3205 	 1.3870 	 62.6841 	 1.7361 	 58.1541 	 17.2224 	 4.5300 	 2.3600
  0.3700 	 1.5600 	 10.1938 	 8.3195 	 1.3839 	 62.5588 	 1.7349 	 58.2301 	 16.3982 	 4.3287 	 2.3600
  0.3700 	 1.5650 	 10.1964 	 8.3184 	 1.3808 	 62.4216 	 1.7337 	 58.3057 	 15.5363 	 4.1158 	 2.3600
  0.3700 	 1.5700 	 10.1990 	 8.3174 	 1.3777 	 62.2705 	 1.7325 	 58.3810 	 14.6302 	 3.8896 	 2.3600
  0.3700 	 1.5750 	 10.2015 	 8.3163 	 1.3746 	 62.1032 	 1.7314 	 58.4558 	 13.6708 	 3.6474 	 2.3600
  0.3700 	 1.5800 	 10.2040 	 8.3153 	 1.3716 	 61.9162 	 1.7302 	 58.5303 	 12.6462 	 3.3858 	 2.3600
  0.3700 	 1.5850 	 10.2065 	 8.3143 	 1.3685 	 61.7046 	 1.7290 	 58.6045 	 11.5386 	 3.1001 	 2.3600
  0.3700 	 1.5900 	 10.2090 	 8.3133 	 1.3655 	 61.4610 	 1.7279 	 58.6782 	 10.3216 	 2.7828 	 2.3600
  0.3700 	 1.5950 	 10.2115 	 8.3122 	 1.3625 	 61.1730 	 1.7268 	 58.7516 	 8.9503 	 2.4214 	 2.3600
  0.3700 	 1.6000 	 10.2140 	 8.3112 	 1.3595 	 60.8169 	 1.7256 	 58.8246 	 7.3387 	 1.9923 	 2.3600
  0.3700 	 1.6050 	 10.2164 	 8.3102 	 1.3565 	 60.3331 	 1.7245 	 58.8973 	 5.2708 	 1.4358 	 2.3600
  0.3700 	 1.3950 	 10.0947 	 8.3780 	 1.5022 	 63.7558 	 1.7860 	 55.4417 	 35.9504 	 8.3141 	 2.3700
  0.3700 	 1.4000 	 10.0979 	 8.3767 	 1.4984 	 63.7679 	 1.7843 	 55.5316 	 35.4611 	 8.2363 	 2.3700
  0.3700 	 1.4050 	 10.1011 	 8.3753 	 1.4946 	 63.7776 	 1.7827 	 55.6209 	 34.9688 	 8.1567 	 2.3700
  0.3700 	 1.4100 	 10.1043 	 8.3740 	 1.4909 	 63.7851 	 1.7811 	 55.7098 	 34.4733 	 8.0753 	 2.3700
  0.3700 	 1.4150 	 10.1074 	 8.3727 	 1.4871 	 63.7903 	 1.7795 	 55.7982 	 33.9743 	 7.9921 	 2.3700
  0.3700 	 1.4200 	 10.1106 	 8.3714 	 1.4834 	 63.7931 	 1.7779 	 55.8861 	 33.4716 	 7.9070 	 2.3700
  0.3700 	 1.4250 	 10.1137 	 8.3701 	 1.4797 	 63.7934 	 1.7764 	 55.9736 	 32.9651 	 7.8199 	 2.3700
  0.3700 	 1.4300 	 10.1168 	 8.3688 	 1.4760 	 63.7913 	 1.7748 	 56.0606 	 32.4545 	 7.7307 	 2.3700
  0.3700 	 1.4350 	 10.1199 	 8.3676 	 1.4724 	 63.7867 	 1.7733 	 56.1471 	 31.9395 	 7.6395 	 2.3700
  0.3700 	 1.4400 	 10.1229 	 8.3663 	 1.4688 	 63.7794 	 1.7718 	 56.2332 	 31.4201 	 7.5461 	 2.3700
  0.3700 	 1.4450 	 10.1260 	 8.3650 	 1.4652 	 63.7694 	 1.7703 	 56.3189 	 30.8957 	 7.4505 	 2.3700
  0.3700 	 1.4500 	 10.1290 	 8.3638 	 1.4616 	 63.7566 	 1.7688 	 56.4041 	 30.3663 	 7.3526 	 2.3700
  0.3700 	 1.4550 	 10.1320 	 8.3625 	 1.4580 	 63.7410 	 1.7673 	 56.4888 	 29.8314 	 7.2522 	 2.3700
  0.3700 	 1.4600 	 10.1350 	 8.3613 	 1.4545 	 63.7225 	 1.7659 	 56.5731 	 29.2907 	 7.1493 	 2.3700
  0.3700 	 1.4650 	 10.1379 	 8.3601 	 1.4510 	 63.7009 	 1.7644 	 56.6570 	 28.7439 	 7.0439 	 2.3700
  0.3700 	 1.4700 	 10.1408 	 8.3589 	 1.4475 	 63.6761 	 1.7630 	 56.7404 	 28.1905 	 6.9357 	 2.3700
  0.3700 	 1.4750 	 10.1438 	 8.3577 	 1.4440 	 63.6481 	 1.7616 	 56.8235 	 27.6301 	 6.8246 	 2.3700
  0.3700 	 1.4800 	 10.1466 	 8.3565 	 1.4406 	 63.6166 	 1.7602 	 56.9060 	 27.0623 	 6.7106 	 2.3700
  0.3700 	 1.4850 	 10.1495 	 8.3553 	 1.4371 	 63.5816 	 1.7588 	 56.9882 	 26.4865 	 6.5934 	 2.3700
  0.3700 	 1.4900 	 10.1524 	 8.3541 	 1.4337 	 63.5429 	 1.7574 	 57.0699 	 25.9021 	 6.4730 	 2.3700
  0.3700 	 1.4950 	 10.1552 	 8.3530 	 1.4303 	 63.5003 	 1.7560 	 57.1512 	 25.3086 	 6.3490 	 2.3700
  0.3700 	 1.5000 	 10.1580 	 8.3518 	 1.4270 	 63.4535 	 1.7547 	 57.2321 	 24.7051 	 6.2214 	 2.3700
  0.3700 	 1.5050 	 10.1608 	 8.3507 	 1.4236 	 63.4025 	 1.7533 	 57.3126 	 24.0909 	 6.0899 	 2.3700
  0.3700 	 1.5100 	 10.1636 	 8.3495 	 1.4203 	 63.3469 	 1.7520 	 57.3926 	 23.4652 	 5.9542 	 2.3700
  0.3700 	 1.5150 	 10.1664 	 8.3484 	 1.4170 	 63.2864 	 1.7507 	 57.4723 	 22.8268 	 5.8141 	 2.3700
  0.3700 	 1.5200 	 10.1691 	 8.3472 	 1.4137 	 63.2208 	 1.7494 	 57.5515 	 22.1748 	 5.6692 	 2.3700
  0.3700 	 1.5250 	 10.1718 	 8.3461 	 1.4104 	 63.1496 	 1.7481 	 57.6304 	 21.5077 	 5.5192 	 2.3700
  0.3700 	 1.5300 	 10.1745 	 8.3450 	 1.4072 	 63.0725 	 1.7468 	 57.7088 	 20.8242 	 5.3636 	 2.3700
  0.3700 	 1.5350 	 10.1772 	 8.3439 	 1.4039 	 62.9889 	 1.7456 	 57.7869 	 20.1224 	 5.2020 	 2.3700
  0.3700 	 1.5400 	 10.1799 	 8.3428 	 1.4007 	 62.8983 	 1.7443 	 57.8645 	 19.4004 	 5.0338 	 2.3700
  0.3700 	 1.5450 	 10.1826 	 8.3417 	 1.3975 	 62.8000 	 1.7431 	 57.9418 	 18.6557 	 4.8582 	 2.3700
  0.3700 	 1.5500 	 10.1852 	 8.3406 	 1.3943 	 62.6932 	 1.7418 	 58.0187 	 17.8855 	 4.6746 	 2.3700
  0.3700 	 1.5550 	 10.1878 	 8.3396 	 1.3912 	 62.5769 	 1.7406 	 58.0951 	 17.0862 	 4.4818 	 2.3700
  0.3700 	 1.5600 	 10.1904 	 8.3385 	 1.3880 	 62.4499 	 1.7394 	 58.1712 	 16.2535 	 4.2787 	 2.3700
  0.3700 	 1.5650 	 10.1930 	 8.3374 	 1.3849 	 62.3107 	 1.7382 	 58.2470 	 15.3819 	 4.0637 	 2.3700
  0.3700 	 1.5700 	 10.1956 	 8.3364 	 1.3818 	 62.1572 	 1.7370 	 58.3223 	 14.4644 	 3.8349 	 2.3700
  0.3700 	 1.5750 	 10.1981 	 8.3353 	 1.3787 	 61.9869 	 1.7358 	 58.3973 	 13.4915 	 3.5896 	 2.3700
  0.3700 	 1.5800 	 10.2007 	 8.3343 	 1.3756 	 61.7961 	 1.7346 	 58.4719 	 12.4501 	 3.3242 	 2.3700
  0.3700 	 1.5850 	 10.2032 	 8.3333 	 1.3726 	 61.5795 	 1.7335 	 58.5461 	 11.3212 	 3.0334 	 2.3700
  0.3700 	 1.5900 	 10.2057 	 8.3322 	 1.3696 	 61.3289 	 1.7323 	 58.6199 	 10.0756 	 2.7090 	 2.3700
  0.3700 	 1.5950 	 10.2082 	 8.3312 	 1.3665 	 61.0306 	 1.7312 	 58.6934 	 8.6627 	 2.3372 	 2.3700
  0.3700 	 1.6000 	 10.2106 	 8.3302 	 1.3635 	 60.6567 	 1.7301 	 58.7665 	 6.9817 	 1.8902 	 2.3700
  0.3700 	 1.3950 	 10.0908 	 8.3973 	 1.5067 	 63.6609 	 1.7907 	 55.3800 	 35.9099 	 8.2809 	 2.3800
  0.3700 	 1.4000 	 10.0941 	 8.3960 	 1.5029 	 63.6729 	 1.7890 	 55.4699 	 35.4193 	 8.2030 	 2.3800
  0.3700 	 1.4050 	 10.0973 	 8.3946 	 1.4991 	 63.6827 	 1.7874 	 55.5593 	 34.9255 	 8.1233 	 2.3800
  0.3700 	 1.4100 	 10.1005 	 8.3933 	 1.4953 	 63.6901 	 1.7858 	 55.6483 	 34.4285 	 8.0418 	 2.3800
  0.3700 	 1.4150 	 10.1037 	 8.3920 	 1.4916 	 63.6953 	 1.7842 	 55.7368 	 33.9279 	 7.9585 	 2.3800
  0.3700 	 1.4200 	 10.1068 	 8.3906 	 1.4878 	 63.6980 	 1.7826 	 55.8248 	 33.4237 	 7.8732 	 2.3800
  0.3700 	 1.4250 	 10.1100 	 8.3893 	 1.4841 	 63.6983 	 1.7811 	 55.9124 	 32.9155 	 7.7859 	 2.3800
  0.3700 	 1.4300 	 10.1131 	 8.3880 	 1.4804 	 63.6961 	 1.7795 	 55.9995 	 32.4032 	 7.6966 	 2.3800
  0.3700 	 1.4350 	 10.1162 	 8.3868 	 1.4768 	 63.6914 	 1.7780 	 56.0861 	 31.8866 	 7.6052 	 2.3800
  0.3700 	 1.4400 	 10.1192 	 8.3855 	 1.4731 	 63.6840 	 1.7764 	 56.1723 	 31.3653 	 7.5117 	 2.3800
  0.3700 	 1.4450 	 10.1223 	 8.3842 	 1.4695 	 63.6739 	 1.7749 	 56.2580 	 30.8391 	 7.4159 	 2.3800
  0.3700 	 1.4500 	 10.1253 	 8.3830 	 1.4659 	 63.6610 	 1.7734 	 56.3433 	 30.3078 	 7.3177 	 2.3800
  0.3700 	 1.4550 	 10.1283 	 8.3817 	 1.4624 	 63.6453 	 1.7720 	 56.4282 	 29.7709 	 7.2171 	 2.3800
  0.3700 	 1.4600 	 10.1313 	 8.3805 	 1.4588 	 63.6266 	 1.7705 	 56.5126 	 29.2281 	 7.1140 	 2.3800
  0.3700 	 1.4650 	 10.1343 	 8.3793 	 1.4553 	 63.6048 	 1.7690 	 56.5966 	 28.6791 	 7.0083 	 2.3800
  0.3700 	 1.4700 	 10.1372 	 8.3780 	 1.4518 	 63.5799 	 1.7676 	 56.6801 	 28.1235 	 6.8998 	 2.3800
  0.3700 	 1.4750 	 10.1401 	 8.3768 	 1.4483 	 63.5516 	 1.7662 	 56.7632 	 27.5608 	 6.7884 	 2.3800
  0.3700 	 1.4800 	 10.1430 	 8.3756 	 1.4448 	 63.5199 	 1.7648 	 56.8459 	 26.9905 	 6.6741 	 2.3800
  0.3700 	 1.4850 	 10.1459 	 8.3744 	 1.4414 	 63.4846 	 1.7634 	 56.9281 	 26.4121 	 6.5565 	 2.3800
  0.3700 	 1.4900 	 10.1488 	 8.3732 	 1.4380 	 63.4456 	 1.7620 	 57.0099 	 25.8249 	 6.4357 	 2.3800
  0.3700 	 1.4950 	 10.1516 	 8.3721 	 1.4346 	 63.4026 	 1.7606 	 57.0913 	 25.2285 	 6.3113 	 2.3800
  0.3700 	 1.5000 	 10.1545 	 8.3709 	 1.4312 	 63.3555 	 1.7592 	 57.1723 	 24.6220 	 6.1832 	 2.3800
  0.3700 	 1.5050 	 10.1573 	 8.3697 	 1.4278 	 63.3041 	 1.7579 	 57.2529 	 24.0046 	 6.0512 	 2.3800
  0.3700 	 1.5100 	 10.1601 	 8.3686 	 1.4245 	 63.2480 	 1.7566 	 57.3330 	 23.3754 	 5.9150 	 2.3800
  0.3700 	 1.5150 	 10.1628 	 8.3674 	 1.4212 	 63.1870 	 1.7552 	 57.4128 	 22.7334 	 5.7742 	 2.3800
  0.3700 	 1.5200 	 10.1656 	 8.3663 	 1.4179 	 63.1208 	 1.7539 	 57.4921 	 22.0774 	 5.6287 	 2.3800
  0.3700 	 1.5250 	 10.1683 	 8.3652 	 1.4146 	 63.0490 	 1.7526 	 57.5711 	 21.4061 	 5.4779 	 2.3800
  0.3700 	 1.5300 	 10.1711 	 8.3641 	 1.4113 	 62.9711 	 1.7513 	 57.6496 	 20.7179 	 5.3215 	 2.3800
  0.3700 	 1.5350 	 10.1738 	 8.3630 	 1.4081 	 62.8867 	 1.7501 	 57.7277 	 20.0112 	 5.1590 	 2.3800
  0.3700 	 1.5400 	 10.1764 	 8.3619 	 1.4049 	 62.7952 	 1.7488 	 57.8055 	 19.2837 	 4.9897 	 2.3800
  0.3700 	 1.5450 	 10.1791 	 8.3608 	 1.4017 	 62.6958 	 1.7475 	 57.8828 	 18.5329 	 4.8130 	 2.3800
  0.3700 	 1.5500 	 10.1817 	 8.3597 	 1.3985 	 62.5877 	 1.7463 	 57.9598 	 17.7559 	 4.6279 	 2.3800
  0.3700 	 1.5550 	 10.1844 	 8.3586 	 1.3953 	 62.4700 	 1.7451 	 58.0364 	 16.9491 	 4.4336 	 2.3800
  0.3700 	 1.5600 	 10.1870 	 8.3575 	 1.3922 	 62.3413 	 1.7438 	 58.1126 	 16.1078 	 4.2287 	 2.3800
  0.3700 	 1.5650 	 10.1896 	 8.3564 	 1.3890 	 62.1999 	 1.7426 	 58.1884 	 15.2262 	 4.0116 	 2.3800
  0.3700 	 1.5700 	 10.1922 	 8.3554 	 1.3859 	 62.0440 	 1.7414 	 58.2638 	 14.2970 	 3.7802 	 2.3800
  0.3700 	 1.5750 	 10.1947 	 8.3543 	 1.3828 	 61.8705 	 1.7402 	 58.3388 	 13.3100 	 3.5317 	 2.3800
  0.3700 	 1.5800 	 10.1973 	 8.3533 	 1.3797 	 61.6757 	 1.7391 	 58.4135 	 12.2512 	 3.2622 	 2.3800
  0.3700 	 1.5850 	 10.1998 	 8.3522 	 1.3767 	 61.4538 	 1.7379 	 58.4878 	 11.1000 	 2.9660 	 2.3800
  0.3700 	 1.5900 	 10.2023 	 8.3512 	 1.3736 	 61.1959 	 1.7367 	 58.5618 	 9.8239 	 2.6342 	 2.3800
  0.3700 	 1.5950 	 10.2048 	 8.3502 	 1.3706 	 60.8863 	 1.7356 	 58.6353 	 8.3658 	 2.2510 	 2.3800
  0.3700 	 1.6000 	 10.2073 	 8.3492 	 1.3676 	 60.4922 	 1.7345 	 58.7086 	 6.6061 	 1.7836 	 2.3800
  0.3700 	 1.3950 	 10.0870 	 8.4166 	 1.5112 	 63.5664 	 1.7954 	 55.3184 	 35.8694 	 8.2480 	 2.3900
  0.3700 	 1.4000 	 10.0903 	 8.4152 	 1.5074 	 63.5784 	 1.7938 	 55.4084 	 35.3774 	 8.1700 	 2.3900
  0.3700 	 1.4050 	 10.0935 	 8.4138 	 1.5036 	 63.5881 	 1.7921 	 55.4979 	 34.8822 	 8.0902 	 2.3900
  0.3700 	 1.4100 	 10.0967 	 8.4125 	 1.4998 	 63.5955 	 1.7905 	 55.5870 	 34.3836 	 8.0085 	 2.3900
  0.3700 	 1.4150 	 10.0999 	 8.4112 	 1.4960 	 63.6006 	 1.7889 	 55.6756 	 33.8815 	 7.9251 	 2.3900
  0.3700 	 1.4200 	 10.1031 	 8.4098 	 1.4923 	 63.6033 	 1.7873 	 55.7637 	 33.3757 	 7.8396 	 2.3900
  0.3700 	 1.4250 	 10.1062 	 8.4085 	 1.4886 	 63.6036 	 1.7857 	 55.8513 	 32.8659 	 7.7522 	 2.3900
  0.3700 	 1.4300 	 10.1094 	 8.4072 	 1.4849 	 63.6013 	 1.7842 	 55.9385 	 32.3520 	 7.6628 	 2.3900
  0.3700 	 1.4350 	 10.1125 	 8.4059 	 1.4812 	 63.5965 	 1.7826 	 56.0253 	 31.8336 	 7.5712 	 2.3900
  0.3700 	 1.4400 	 10.1155 	 8.4047 	 1.4775 	 63.5890 	 1.7811 	 56.1116 	 31.3105 	 7.4774 	 2.3900
  0.3700 	 1.4450 	 10.1186 	 8.4034 	 1.4739 	 63.5788 	 1.7796 	 56.1974 	 30.7825 	 7.3814 	 2.3900
  0.3700 	 1.4500 	 10.1216 	 8.4021 	 1.4703 	 63.5658 	 1.7781 	 56.2828 	 30.2492 	 7.2830 	 2.3900
  0.3700 	 1.4550 	 10.1247 	 8.4009 	 1.4667 	 63.5499 	 1.7766 	 56.3677 	 29.7103 	 7.1822 	 2.3900
  0.3700 	 1.4600 	 10.1277 	 8.3996 	 1.4632 	 63.5311 	 1.7751 	 56.4522 	 29.1654 	 7.0789 	 2.3900
  0.3700 	 1.4650 	 10.1306 	 8.3984 	 1.4596 	 63.5091 	 1.7736 	 56.5363 	 28.6143 	 6.9728 	 2.3900
  0.3700 	 1.4700 	 10.1336 	 8.3972 	 1.4561 	 63.4840 	 1.7722 	 56.6199 	 28.0564 	 6.8641 	 2.3900
  0.3700 	 1.4750 	 10.1365 	 8.3959 	 1.4526 	 63.4555 	 1.7708 	 56.7031 	 27.4913 	 6.7524 	 2.3900
  0.3700 	 1.4800 	 10.1394 	 8.3947 	 1.4491 	 63.4236 	 1.7693 	 56.7859 	 26.9185 	 6.6377 	 2.3900
  0.3700 	 1.4850 	 10.1423 	 8.3935 	 1.4457 	 63.3880 	 1.7679 	 56.8682 	 26.3375 	 6.5198 	 2.3900
  0.3700 	 1.4900 	 10.1452 	 8.3923 	 1.4423 	 63.3487 	 1.7665 	 56.9501 	 25.7476 	 6.3986 	 2.3900
  0.3700 	 1.4950 	 10.1481 	 8.3911 	 1.4388 	 63.3054 	 1.7652 	 57.0316 	 25.1483 	 6.2738 	 2.3900
  0.3700 	 1.5000 	 10.1509 	 8.3900 	 1.4355 	 63.2579 	 1.7638 	 57.1127 	 24.5387 	 6.1452 	 2.3900
  0.3700 	 1.5050 	 10.1537 	 8.3888 	 1.4321 	 63.2060 	 1.7624 	 57.1933 	 23.9180 	 6.0127 	 2.3900
  0.3700 	 1.5100 	 10.1565 	 8.3876 	 1.4287 	 63.1495 	 1.7611 	 57.2736 	 23.2854 	 5.8759 	 2.3900
  0.3700 	 1.5150 	 10.1593 	 8.3865 	 1.4254 	 63.0880 	 1.7598 	 57.3534 	 22.6397 	 5.7346 	 2.3900
  0.3700 	 1.5200 	 10.1621 	 8.3854 	 1.4221 	 63.0212 	 1.7584 	 57.4329 	 21.9797 	 5.5883 	 2.3900
  0.3700 	 1.5250 	 10.1648 	 8.3842 	 1.4188 	 62.9487 	 1.7571 	 57.5119 	 21.3041 	 5.4368 	 2.3900
  0.3700 	 1.5300 	 10.1676 	 8.3831 	 1.4155 	 62.8701 	 1.7558 	 57.5905 	 20.6113 	 5.2796 	 2.3900
  0.3700 	 1.5350 	 10.1703 	 8.3820 	 1.4123 	 62.7848 	 1.7545 	 57.6687 	 19.8995 	 5.1161 	 2.3900
  0.3700 	 1.5400 	 10.1730 	 8.3809 	 1.4090 	 62.6923 	 1.7533 	 57.7466 	 19.1664 	 4.9457 	 2.3900
  0.3700 	 1.5450 	 10.1757 	 8.3798 	 1.4058 	 62.5918 	 1.7520 	 57.8240 	 18.4095 	 4.7678 	 2.3900
  0.3700 	 1.5500 	 10.1783 	 8.3787 	 1.4026 	 62.4825 	 1.7508 	 57.9011 	 17.6257 	 4.5814 	 2.3900
  0.3700 	 1.5550 	 10.1810 	 8.3776 	 1.3994 	 62.3632 	 1.7495 	 57.9777 	 16.8111 	 4.3855 	 2.3900
  0.3700 	 1.5600 	 10.1836 	 8.3765 	 1.3963 	 62.2327 	 1.7483 	 58.0540 	 15.9609 	 4.1787 	 2.3900
  0.3700 	 1.5650 	 10.1862 	 8.3754 	 1.3931 	 62.0893 	 1.7471 	 58.1299 	 15.0692 	 3.9594 	 2.3900
  0.3700 	 1.5700 	 10.1888 	 8.3743 	 1.3900 	 61.9307 	 1.7459 	 58.2054 	 14.1279 	 3.7253 	 2.3900
  0.3700 	 1.5750 	 10.1914 	 8.3733 	 1.3869 	 61.7541 	 1.7447 	 58.2806 	 13.1263 	 3.4735 	 2.3900
  0.3700 	 1.5800 	 10.1939 	 8.3722 	 1.3838 	 61.5551 	 1.7435 	 58.3554 	 12.0494 	 3.1997 	 2.3900
  0.3700 	 1.5850 	 10.1965 	 8.3712 	 1.3807 	 61.3277 	 1.7423 	 58.4298 	 10.8746 	 2.8979 	 2.3900
  0.3700 	 1.5900 	 10.1990 	 8.3701 	 1.3777 	 61.0619 	 1.7412 	 58.5038 	 9.5660 	 2.5581 	 2.3900
  0.3700 	 1.5950 	 10.2015 	 8.3691 	 1.3746 	 60.7399 	 1.7400 	 58.5775 	 8.0584 	 2.1624 	 2.3900
  0.3700 	 1.6000 	 10.2040 	 8.3681 	 1.3716 	 60.3225 	 1.7389 	 58.6508 	 6.2085 	 1.6717 	 2.3900
  0.3700 	 1.3950 	 10.0832 	 8.4358 	 1.5157 	 63.4723 	 1.8001 	 55.2570 	 35.8289 	 8.2153 	 2.4000
  0.3700 	 1.4000 	 10.0865 	 8.4344 	 1.5119 	 63.4842 	 1.7985 	 55.3471 	 35.3355 	 8.1371 	 2.4000
  0.3700 	 1.4050 	 10.0897 	 8.4330 	 1.5080 	 63.4939 	 1.7968 	 55.4367 	 34.8388 	 8.0572 	 2.4000
  0.3700 	 1.4100 	 10.0929 	 8.4317 	 1.5042 	 63.5013 	 1.7952 	 55.5259 	 34.3388 	 7.9755 	 2.4000
  0.3700 	 1.4150 	 10.0962 	 8.4304 	 1.5005 	 63.5064 	 1.7936 	 55.6145 	 33.8351 	 7.8918 	 2.4000
  0.3700 	 1.4200 	 10.0993 	 8.4290 	 1.4967 	 63.5090 	 1.7920 	 55.7027 	 33.3277 	 7.8063 	 2.4000
  0.3700 	 1.4250 	 10.1025 	 8.4277 	 1.4930 	 63.5092 	 1.7904 	 55.7905 	 32.8163 	 7.7187 	 2.4000
  0.3700 	 1.4300 	 10.1056 	 8.4264 	 1.4893 	 63.5069 	 1.7888 	 55.8778 	 32.3007 	 7.6291 	 2.4000
  0.3700 	 1.4350 	 10.1087 	 8.4251 	 1.4856 	 63.5020 	 1.7873 	 55.9646 	 31.7806 	 7.5373 	 2.4000
  0.3700 	 1.4400 	 10.1118 	 8.4238 	 1.4819 	 63.4944 	 1.7857 	 56.0510 	 31.2557 	 7.4434 	 2.4000
  0.3700 	 1.4450 	 10.1149 	 8.4225 	 1.4783 	 63.4841 	 1.7842 	 56.1369 	 30.7258 	 7.3472 	 2.4000
  0.3700 	 1.4500 	 10.1180 	 8.4212 	 1.4747 	 63.4710 	 1.7827 	 56.2224 	 30.1906 	 7.2486 	 2.4000
  0.3700 	 1.4550 	 10.1210 	 8.4200 	 1.4711 	 63.4550 	 1.7812 	 56.3074 	 29.6497 	 7.1475 	 2.4000
  0.3700 	 1.4600 	 10.1240 	 8.4187 	 1.4675 	 63.4359 	 1.7797 	 56.3920 	 29.1027 	 7.0439 	 2.4000
  0.3700 	 1.4650 	 10.1270 	 8.4175 	 1.4639 	 63.4138 	 1.7782 	 56.4762 	 28.5494 	 6.9377 	 2.4000
  0.3700 	 1.4700 	 10.1300 	 8.4162 	 1.4604 	 63.3885 	 1.7768 	 56.5599 	 27.9892 	 6.8286 	 2.4000
  0.3700 	 1.4750 	 10.1329 	 8.4150 	 1.4569 	 63.3598 	 1.7753 	 56.6432 	 27.4217 	 6.7166 	 2.4000
  0.3700 	 1.4800 	 10.1358 	 8.4138 	 1.4534 	 63.3276 	 1.7739 	 56.7260 	 26.8465 	 6.6016 	 2.4000
  0.3700 	 1.4850 	 10.1388 	 8.4126 	 1.4500 	 63.2918 	 1.7725 	 56.8085 	 26.2628 	 6.4833 	 2.4000
  0.3700 	 1.4900 	 10.1416 	 8.4114 	 1.4465 	 63.2521 	 1.7711 	 56.8905 	 25.6702 	 6.3617 	 2.4000
  0.3700 	 1.4950 	 10.1445 	 8.4102 	 1.4431 	 63.2085 	 1.7697 	 56.9720 	 25.0679 	 6.2365 	 2.4000
  0.3700 	 1.5000 	 10.1474 	 8.4090 	 1.4397 	 63.1607 	 1.7683 	 57.0532 	 24.4553 	 6.1074 	 2.4000
  0.3700 	 1.5050 	 10.1502 	 8.4078 	 1.4363 	 63.1084 	 1.7670 	 57.1340 	 23.8313 	 5.9744 	 2.4000
  0.3700 	 1.5100 	 10.1530 	 8.4067 	 1.4329 	 63.0513 	 1.7656 	 57.2143 	 23.1952 	 5.8370 	 2.4000
  0.3700 	 1.5150 	 10.1558 	 8.4055 	 1.4296 	 62.9893 	 1.7643 	 57.2942 	 22.5457 	 5.6951 	 2.4000
  0.3700 	 1.5200 	 10.1586 	 8.4044 	 1.4263 	 62.9219 	 1.7629 	 57.3738 	 21.8817 	 5.5481 	 2.4000
  0.3700 	 1.5250 	 10.1613 	 8.4032 	 1.4230 	 62.8487 	 1.7616 	 57.4529 	 21.2018 	 5.3959 	 2.4000
  0.3700 	 1.5300 	 10.1641 	 8.4021 	 1.4197 	 62.7694 	 1.7603 	 57.5316 	 20.5043 	 5.2378 	 2.4000
  0.3700 	 1.5350 	 10.1668 	 8.4010 	 1.4164 	 62.6833 	 1.7590 	 57.6099 	 19.7873 	 5.0733 	 2.4000
  0.3700 	 1.5400 	 10.1695 	 8.3998 	 1.4132 	 62.5898 	 1.7578 	 57.6879 	 19.0486 	 4.9019 	 2.4000
  0.3700 	 1.5450 	 10.1722 	 8.3987 	 1.4100 	 62.4882 	 1.7565 	 57.7654 	 18.2855 	 4.7228 	 2.4000
  0.3700 	 1.5500 	 10.1749 	 8.3976 	 1.4067 	 62.3775 	 1.7552 	 57.8425 	 17.4947 	 4.5350 	 2.4000
  0.3700 	 1.5550 	 10.1775 	 8.3965 	 1.4036 	 62.2567 	 1.7540 	 57.9193 	 16.6722 	 4.3374 	 2.4000
  0.3700 	 1.5600 	 10.1802 	 8.3954 	 1.4004 	 62.1244 	 1.7528 	 57.9957 	 15.8130 	 4.1287 	 2.4000
  0.3700 	 1.5650 	 10.1828 	 8.3944 	 1.3972 	 61.9788 	 1.7515 	 58.0717 	 14.9108 	 3.9071 	 2.4000
  0.3700 	 1.5700 	 10.1854 	 8.3933 	 1.3941 	 61.8175 	 1.7503 	 58.1473 	 13.9571 	 3.6703 	 2.4000
  0.3700 	 1.5750 	 10.1880 	 8.3922 	 1.3910 	 61.6375 	 1.7491 	 58.2225 	 12.9404 	 3.4150 	 2.4000
  0.3700 	 1.5800 	 10.1905 	 8.3912 	 1.3879 	 61.4342 	 1.7479 	 58.2974 	 11.8445 	 3.1368 	 2.4000
  0.3700 	 1.5850 	 10.1931 	 8.3901 	 1.3848 	 61.2009 	 1.7467 	 58.3719 	 10.6449 	 2.8290 	 2.4000
  0.3700 	 1.5900 	 10.1956 	 8.3891 	 1.3817 	 60.9266 	 1.7456 	 58.4460 	 9.3015 	 2.4806 	 2.4000
  0.3700 	 1.5950 	 10.1982 	 8.3880 	 1.3787 	 60.5909 	 1.7444 	 58.5197 	 7.7395 	 2.0712 	 2.4000
  0.3700 	 1.6000 	 10.2007 	 8.3870 	 1.3756 	 60.1465 	 1.7433 	 58.5931 	 5.7845 	 1.5534 	 2.4000
