# d(e,e'p)n Central Kinematics Summary
# Beam Energy (Ei) = 10.549 GeV
# 4-Momentum Transfer (Q2) = 2.90 - 4.50 GeV (step: 0.10) 
# x-Bjorken (xbj) = 1.00 - 2.10 (step: 0.10) 
# Missing Momentum (Pr) = 0.00 - 1.10 GeV (step: 0.10) 
# Hadron Out-of-Plane Angle (phi) = 180 deg 
# thp = thq - thpq, phi = 180 ?  (q-vector scatters at larger  angles than proton scattering angle)# 
# # 
# Tensor Polarized Deuterium: d(e,e'p) kinematics :
# 
# Header Definitions: 
# Pr   : Central Missing Momentum [GeV/c] 
# xbj  : Bjorken x  
# kf   : e- final momentum [GeV/c] 
# th_e : e- scattering angle [deg] 
# Pf   : final proton momentum [GeV/c] 
# th_p : proton scattering angle [deg] 
# q    : 3-momentum transfer [GeV] 
# th_q : relative angle between q-vector and +z (lab)  [deg] 
# th_nq: relative angle between q-vector and recoil neutron [deg] 
# th_pq: relative angle between q-vector and knocked-out proton [deg] 
# Q2   : 4-Momentum Transfer [GeV^2]  
# 
#! Pr[f,0]/ 	  xbj[f,1]/ 	 kf[f,2]/ 	 th_e[f,3]/ 	 Pf[f,4]/ 	 th_p[f,5]/ 	 q[f,6]/ 	 th_q[f,7]/ 	 th_nq[f,8]/ 	 th_pq[f,9]/ 	 Q2[f,10]/
  0.1000 	 1.0000 	 9.0036 	 10.0245 	 2.2915 	 40.4751 	 2.2996 	 42.9630 	 84.0901 	 2.4879 	 2.9000
  0.1000 	 1.1000 	 9.1441 	 9.9470 	 2.1389 	 43.7675 	 2.2077 	 45.6820 	 45.6087 	 1.9145 	 2.9000
  0.1000 	 1.0000 	 8.9503 	 10.2267 	 2.3490 	 39.9626 	 2.3571 	 42.3897 	 84.1366 	 2.4272 	 3.0000
  0.1000 	 1.1000 	 9.0957 	 10.1444 	 2.1917 	 43.2611 	 2.2610 	 45.1161 	 45.1898 	 1.8550 	 3.0000
  0.1000 	 1.0000 	 8.8970 	 10.4274 	 2.4063 	 39.4633 	 2.4143 	 41.8328 	 84.1804 	 2.3695 	 3.1000
  0.1000 	 1.1000 	 9.0472 	 10.3402 	 2.2443 	 42.7669 	 2.3142 	 44.5655 	 44.7819 	 1.7986 	 3.1000
  0.1000 	 1.0000 	 8.8437 	 10.6267 	 2.4634 	 38.9766 	 2.4714 	 41.2914 	 84.2218 	 2.3147 	 3.2000
  0.1000 	 1.1000 	 8.9988 	 10.5345 	 2.2967 	 42.2844 	 2.3671 	 44.0296 	 44.3845 	 1.7452 	 3.2000
  0.1000 	 1.0000 	 8.7904 	 10.8247 	 2.5203 	 38.5019 	 2.5283 	 40.7645 	 84.2609 	 2.2626 	 3.3000
  0.1000 	 1.1000 	 8.9503 	 10.7273 	 2.3490 	 41.8129 	 2.4199 	 43.5075 	 43.9973 	 1.6946 	 3.3000
  0.1000 	 1.0000 	 8.7372 	 11.0215 	 2.5771 	 38.0386 	 2.5851 	 40.2514 	 84.2979 	 2.2128 	 3.4000
  0.1000 	 1.1000 	 8.9019 	 10.9188 	 2.4011 	 41.3521 	 2.4725 	 42.9986 	 43.6198 	 1.6464 	 3.4000
  0.1000 	 1.0000 	 8.6839 	 11.2173 	 2.6337 	 37.5862 	 2.6417 	 39.7515 	 84.3331 	 2.1653 	 3.5000
  0.1000 	 1.1000 	 8.8534 	 11.1090 	 2.4530 	 40.9015 	 2.5249 	 42.5021 	 43.2515 	 1.6007 	 3.5000
  0.1000 	 1.0000 	 8.6306 	 11.4121 	 2.6902 	 37.1442 	 2.6982 	 39.2641 	 84.3664 	 2.1200 	 3.6000
  0.1000 	 1.1000 	 8.8050 	 11.2982 	 2.5048 	 40.4605 	 2.5771 	 42.0176 	 42.8921 	 1.5571 	 3.6000
  0.1000 	 1.0000 	 8.5773 	 11.6061 	 2.7466 	 36.7121 	 2.7546 	 38.7886 	 84.3982 	 2.0765 	 3.7000
  0.1000 	 1.1000 	 8.7565 	 11.4863 	 2.5565 	 40.0289 	 2.6292 	 41.5444 	 42.5412 	 1.5155 	 3.7000
  0.1000 	 1.0000 	 8.5240 	 11.7993 	 2.8029 	 36.2894 	 2.8108 	 38.3244 	 84.4284 	 2.0350 	 3.8000
  0.1000 	 1.1000 	 8.7081 	 11.6734 	 2.6080 	 39.6063 	 2.6812 	 41.0821 	 42.1985 	 1.4758 	 3.8000
  0.1000 	 1.0000 	 8.4707 	 11.9917 	 2.8590 	 35.8759 	 2.8669 	 37.8710 	 84.4572 	 1.9951 	 3.9000
  0.1000 	 1.1000 	 8.6596 	 11.8597 	 2.6594 	 39.1922 	 2.7331 	 40.6301 	 41.8637 	 1.4379 	 3.9000
  0.1000 	 1.0000 	 8.4174 	 12.1836 	 2.9150 	 35.4710 	 2.9229 	 37.4278 	 84.4848 	 1.9568 	 4.0000
  0.1000 	 1.1000 	 8.6112 	 12.0452 	 2.7107 	 38.7863 	 2.7848 	 40.1880 	 41.5364 	 1.4017 	 4.0000
  0.1000 	 1.0000 	 8.3641 	 12.3749 	 2.9710 	 35.0745 	 2.9789 	 36.9946 	 84.5111 	 1.9200 	 4.1000
  0.1000 	 1.1000 	 8.5628 	 12.2300 	 2.7620 	 38.3883 	 2.8364 	 39.7553 	 41.2163 	 1.3670 	 4.1000
  0.1000 	 1.0000 	 8.3108 	 12.5658 	 3.0268 	 34.6860 	 3.0347 	 36.5707 	 84.5362 	 1.8847 	 4.2000
  0.1000 	 1.1000 	 8.5143 	 12.4141 	 2.8131 	 37.9979 	 2.8879 	 39.3317 	 40.9033 	 1.3338 	 4.2000
  0.1000 	 1.0000 	 8.2576 	 12.7562 	 3.0826 	 34.3052 	 3.0904 	 36.1558 	 84.5603 	 1.8507 	 4.3000
  0.1000 	 1.1000 	 8.4659 	 12.5977 	 2.8641 	 37.6149 	 2.9393 	 38.9168 	 40.5969 	 1.3019 	 4.3000
  0.1000 	 1.0000 	 8.2043 	 12.9464 	 3.1382 	 33.9317 	 3.1461 	 35.7496 	 84.5834 	 1.8179 	 4.4000
  0.1000 	 1.1000 	 8.4174 	 12.7807 	 2.9150 	 37.2389 	 2.9906 	 38.5102 	 40.2971 	 1.2713 	 4.4000
  0.1000 	 1.0000 	 8.1510 	 13.1362 	 3.1938 	 33.5653 	 3.2016 	 35.3516 	 84.6055 	 1.7863 	 4.5000
  0.1000 	 1.1000 	 8.3690 	 12.9632 	 2.9659 	 36.8696 	 3.0418 	 38.1116 	 40.0035 	 1.2419 	 4.5000
  0.2000 	 1.0000 	 9.0036 	 10.0245 	 2.2745 	 37.9906 	 2.2996 	 42.9630 	 80.2942 	 4.9723 	 2.9000
  0.2000 	 1.1000 	 9.1441 	 9.9470 	 2.1217 	 40.9000 	 2.2077 	 45.6820 	 62.1763 	 4.7821 	 2.9000
  0.2000 	 1.2000 	 9.2612 	 9.8837 	 1.9930 	 44.2099 	 2.1351 	 48.1210 	 42.8202 	 3.9111 	 2.9000
  0.2000 	 1.3000 	 9.3602 	 9.8312 	 1.8829 	 48.8909 	 2.0768 	 50.3138 	 13.5200 	 1.4229 	 2.9000
  0.2000 	 1.0000 	 8.9503 	 10.2267 	 2.3320 	 37.5392 	 2.3571 	 42.3897 	 80.3801 	 4.8506 	 3.0000
  0.2000 	 1.1000 	 9.0957 	 10.1444 	 2.1746 	 40.4548 	 2.2610 	 45.1161 	 62.0772 	 4.6613 	 3.0000
  0.2000 	 1.2000 	 9.2168 	 10.0774 	 2.0420 	 43.7762 	 2.1851 	 47.5651 	 42.4291 	 3.7889 	 3.0000
  0.2000 	 1.3000 	 9.3192 	 10.0217 	 1.9286 	 48.5872 	 2.1242 	 49.7697 	 11.4793 	 1.1826 	 3.0000
  0.2000 	 1.0000 	 8.8970 	 10.4274 	 2.3893 	 37.0978 	 2.4143 	 41.8328 	 80.4612 	 4.7350 	 3.1000
  0.2000 	 1.1000 	 9.0472 	 10.3402 	 2.2272 	 40.0188 	 2.3142 	 44.5655 	 61.9797 	 4.5467 	 3.1000
  0.2000 	 1.2000 	 9.1724 	 10.2693 	 2.0908 	 43.3505 	 2.2350 	 47.0237 	 42.0459 	 3.6732 	 3.1000
  0.2000 	 1.3000 	 9.2783 	 10.2103 	 1.9741 	 48.3239 	 2.1714 	 49.2393 	 9.0735 	 0.9154 	 3.1000
  0.2000 	 1.0000 	 8.8437 	 10.6267 	 2.4465 	 36.6662 	 2.4714 	 41.2914 	 80.5378 	 4.6252 	 3.2000
  0.2000 	 1.1000 	 8.9988 	 10.5345 	 2.2797 	 39.5917 	 2.3671 	 44.0296 	 61.8839 	 4.4379 	 3.2000
  0.2000 	 1.2000 	 9.1279 	 10.4594 	 2.1393 	 42.9327 	 2.2846 	 46.4961 	 41.6704 	 3.5635 	 3.2000
  0.2000 	 1.3000 	 9.2373 	 10.3972 	 2.0194 	 48.1423 	 2.2183 	 48.7220 	 5.8633 	 0.5797 	 3.2000
  0.2000 	 1.0000 	 8.7904 	 10.8247 	 2.5035 	 36.2439 	 2.5283 	 40.7645 	 80.6103 	 4.5206 	 3.3000
  0.2000 	 1.1000 	 8.9503 	 10.7273 	 2.3320 	 39.1732 	 2.4199 	 43.5075 	 61.7898 	 4.3343 	 3.3000
  0.2000 	 1.2000 	 9.0835 	 10.6481 	 2.1877 	 42.5224 	 2.3340 	 45.9816 	 41.3024 	 3.4593 	 3.3000
  0.2000 	 1.0000 	 8.7372 	 11.0215 	 2.5603 	 35.8305 	 2.5851 	 40.2514 	 80.6790 	 4.4209 	 3.4000
  0.2000 	 1.1000 	 8.9019 	 10.9188 	 2.3841 	 38.7629 	 2.4725 	 42.9986 	 61.6975 	 4.2357 	 3.4000
  0.2000 	 1.2000 	 9.0391 	 10.8353 	 2.2360 	 42.1194 	 2.3832 	 45.4796 	 40.9417 	 3.3602 	 3.4000
  0.2000 	 1.0000 	 8.6839 	 11.2173 	 2.6170 	 35.4257 	 2.6417 	 39.7515 	 80.7442 	 4.3258 	 3.5000
  0.2000 	 1.1000 	 8.8534 	 11.1090 	 2.4361 	 38.3605 	 2.5249 	 42.5021 	 61.6069 	 4.1416 	 3.5000
  0.2000 	 1.2000 	 8.9947 	 11.0211 	 2.2841 	 41.7235 	 2.4322 	 44.9894 	 40.5881 	 3.2659 	 3.5000
  0.2000 	 1.0000 	 8.6306 	 11.4121 	 2.6736 	 35.0292 	 2.6982 	 39.2641 	 80.8063 	 4.2349 	 3.6000
  0.2000 	 1.1000 	 8.8050 	 11.2982 	 2.4880 	 37.9659 	 2.5771 	 42.0176 	 61.5180 	 4.0517 	 3.6000
  0.2000 	 1.2000 	 8.9503 	 11.2058 	 2.3320 	 41.3345 	 2.4811 	 44.5105 	 40.2412 	 3.1760 	 3.6000
  0.2000 	 1.0000 	 8.5773 	 11.6061 	 2.7300 	 34.6407 	 2.7546 	 38.7886 	 80.8653 	 4.1479 	 3.7000
  0.2000 	 1.1000 	 8.7565 	 11.4863 	 2.5397 	 37.5786 	 2.6292 	 41.5444 	 61.4309 	 3.9658 	 3.7000
  0.2000 	 1.2000 	 8.9059 	 11.3892 	 2.3798 	 40.9522 	 2.5298 	 44.0425 	 39.9009 	 3.0902 	 3.7000
  0.2000 	 1.0000 	 8.5240 	 11.7993 	 2.7863 	 34.2598 	 2.8108 	 38.3244 	 80.9216 	 4.0646 	 3.8000
  0.2000 	 1.1000 	 8.7081 	 11.6734 	 2.5913 	 37.1985 	 2.6812 	 41.0821 	 61.3455 	 3.8836 	 3.8000
  0.2000 	 1.2000 	 8.8615 	 11.5716 	 2.4275 	 40.5763 	 2.5783 	 43.5847 	 39.5671 	 3.0083 	 3.8000
  0.2000 	 1.0000 	 8.4707 	 11.9917 	 2.8424 	 33.8862 	 2.8669 	 37.8710 	 80.9753 	 3.9848 	 3.9000
  0.2000 	 1.1000 	 8.6596 	 11.8597 	 2.6427 	 36.8253 	 2.7331 	 40.6301 	 61.2618 	 3.8048 	 3.9000
  0.2000 	 1.2000 	 8.8171 	 11.7530 	 2.4750 	 40.2068 	 2.6267 	 43.1367 	 39.2394 	 2.9300 	 3.9000
  0.2000 	 1.0000 	 8.4174 	 12.1836 	 2.8985 	 33.5197 	 2.9229 	 37.4278 	 81.0266 	 3.9081 	 4.0000
  0.2000 	 1.1000 	 8.6112 	 12.0452 	 2.6941 	 36.4587 	 2.7848 	 40.1880 	 61.1797 	 3.7292 	 4.0000
  0.2000 	 1.2000 	 8.7727 	 11.9334 	 2.5225 	 39.8432 	 2.6749 	 42.6983 	 38.9178 	 2.8550 	 4.0000
  0.2000 	 1.0000 	 8.3641 	 12.3749 	 2.9545 	 33.1601 	 2.9789 	 36.9946 	 81.0757 	 3.8345 	 4.1000
  0.2000 	 1.1000 	 8.5628 	 12.2300 	 2.7453 	 36.0986 	 2.8364 	 39.7553 	 61.0993 	 3.6567 	 4.1000
  0.2000 	 1.2000 	 8.7283 	 12.1131 	 2.5698 	 39.4856 	 2.7231 	 42.2688 	 38.6020 	 2.7832 	 4.1000
  0.2000 	 1.0000 	 8.3108 	 12.5658 	 3.0103 	 32.8070 	 3.0347 	 36.5707 	 81.1227 	 3.7637 	 4.2000
  0.2000 	 1.1000 	 8.5143 	 12.4141 	 2.7965 	 35.7447 	 2.8879 	 39.3317 	 61.0205 	 3.5870 	 4.2000
  0.2000 	 1.2000 	 8.6839 	 12.2919 	 2.6170 	 39.1337 	 2.7710 	 41.8480 	 38.2918 	 2.7144 	 4.2000
  0.2000 	 1.0000 	 8.2576 	 12.7562 	 3.0661 	 32.4602 	 3.0904 	 36.1558 	 81.1677 	 3.6956 	 4.3000
  0.2000 	 1.1000 	 8.4659 	 12.5977 	 2.8475 	 35.3968 	 2.9393 	 38.9168 	 60.9432 	 3.5200 	 4.3000
  0.2000 	 1.2000 	 8.6395 	 12.4700 	 2.6641 	 38.7873 	 2.8189 	 41.4356 	 37.9871 	 2.6483 	 4.3000
  0.2000 	 1.0000 	 8.2043 	 12.9464 	 3.1218 	 32.1195 	 3.1461 	 35.7496 	 81.2109 	 3.6300 	 4.4000
  0.2000 	 1.1000 	 8.4174 	 12.7807 	 2.8985 	 35.0547 	 2.9906 	 38.5102 	 60.8676 	 3.4555 	 4.4000
  0.2000 	 1.2000 	 8.5951 	 12.6474 	 2.7112 	 38.4462 	 2.8667 	 41.0311 	 37.6876 	 2.5849 	 4.4000
  0.2000 	 1.0000 	 8.1510 	 13.1362 	 3.1774 	 31.7847 	 3.2016 	 35.3516 	 81.2523 	 3.5668 	 4.5000
  0.2000 	 1.1000 	 8.3690 	 12.9632 	 2.9494 	 34.7183 	 3.0418 	 38.1116 	 60.7934 	 3.3933 	 4.5000
  0.2000 	 1.2000 	 8.5506 	 12.8242 	 2.7581 	 38.1104 	 2.9143 	 40.6343 	 37.3934 	 2.5239 	 4.5000
  0.3000 	 1.0000 	 9.0036 	 10.0245 	 2.2467 	 35.5143 	 2.2996 	 42.9630 	 76.1286 	 7.4487 	 2.9000
  0.3000 	 1.1000 	 9.1441 	 9.9470 	 2.0936 	 38.2822 	 2.2077 	 45.6820 	 63.9997 	 7.3998 	 2.9000
  0.3000 	 1.2000 	 9.2612 	 9.8837 	 1.9646 	 41.2109 	 2.1351 	 48.1210 	 51.9876 	 6.9101 	 2.9000
  0.3000 	 1.3000 	 9.3602 	 9.8312 	 1.8542 	 44.4395 	 2.0768 	 50.3138 	 39.2398 	 5.8743 	 2.9000
  0.3000 	 1.4000 	 9.4451 	 9.7868 	 1.7585 	 48.3801 	 2.0294 	 52.2904 	 23.5618 	 3.9103 	 2.9000
  0.3000 	 1.0000 	 8.9503 	 10.2267 	 2.3043 	 35.1245 	 2.3571 	 42.3897 	 76.2557 	 7.2653 	 3.0000
  0.3000 	 1.1000 	 9.0957 	 10.1444 	 2.1466 	 37.8993 	 2.2610 	 45.1161 	 64.0092 	 7.2168 	 3.0000
  0.3000 	 1.2000 	 9.2168 	 10.0774 	 2.0137 	 40.8372 	 2.1851 	 47.5651 	 51.8482 	 6.7279 	 3.0000
  0.3000 	 1.3000 	 9.3192 	 10.0217 	 1.9000 	 44.0821 	 2.1242 	 49.7697 	 38.8787 	 5.6876 	 3.0000
  0.3000 	 1.4000 	 9.4071 	 9.9747 	 1.8015 	 48.0763 	 2.0746 	 51.7593 	 22.6896 	 3.6829 	 3.0000
  0.3000 	 1.0000 	 8.8970 	 10.4274 	 2.3617 	 34.7415 	 2.4143 	 41.8328 	 76.3756 	 7.0913 	 3.1000
  0.3000 	 1.1000 	 9.0472 	 10.3402 	 2.1993 	 37.5224 	 2.3142 	 44.5655 	 64.0156 	 7.0431 	 3.1000
  0.3000 	 1.2000 	 9.1724 	 10.2693 	 2.0626 	 40.4685 	 2.2350 	 47.0237 	 51.7100 	 6.5552 	 3.1000
  0.3000 	 1.3000 	 9.2783 	 10.2103 	 1.9456 	 43.7286 	 2.1714 	 49.2393 	 38.5220 	 5.5107 	 3.1000
  0.3000 	 1.4000 	 9.3690 	 10.1606 	 1.8444 	 47.7772 	 2.1195 	 51.2410 	 21.8048 	 3.4639 	 3.1000
  0.3000 	 1.0000 	 8.8437 	 10.6267 	 2.4190 	 34.3654 	 2.4714 	 41.2914 	 76.4889 	 6.9260 	 3.2000
  0.3000 	 1.1000 	 8.9988 	 10.5345 	 2.2519 	 37.1515 	 2.3671 	 44.0296 	 64.0194 	 6.8781 	 3.2000
  0.3000 	 1.2000 	 9.1279 	 10.4594 	 2.1113 	 40.1049 	 2.2846 	 46.4961 	 51.5731 	 6.3913 	 3.2000
  0.3000 	 1.3000 	 9.2373 	 10.3972 	 1.9911 	 43.3791 	 2.2183 	 48.7220 	 38.1697 	 5.3429 	 3.2000
  0.3000 	 1.4000 	 9.3310 	 10.3447 	 1.8870 	 47.4830 	 2.1642 	 50.7351 	 20.9053 	 3.2521 	 3.2000
  0.3000 	 1.0000 	 8.7904 	 10.8247 	 2.4761 	 33.9959 	 2.5283 	 40.7645 	 76.5962 	 6.7686 	 3.3000
  0.3000 	 1.1000 	 8.9503 	 10.7273 	 2.3043 	 36.7864 	 2.4199 	 43.5075 	 64.0208 	 6.7211 	 3.3000
  0.3000 	 1.2000 	 9.0835 	 10.6481 	 2.1598 	 39.7463 	 2.3340 	 45.9816 	 51.4376 	 6.2354 	 3.3000
  0.3000 	 1.3000 	 9.1963 	 10.5824 	 2.0363 	 43.0337 	 2.2649 	 48.2170 	 37.8220 	 5.1833 	 3.3000
  0.3000 	 1.4000 	 9.2929 	 10.5271 	 1.9294 	 47.1941 	 2.2086 	 50.2408 	 19.9883 	 3.0468 	 3.3000
  0.3000 	 1.0000 	 8.7372 	 11.0215 	 2.5330 	 33.6328 	 2.5851 	 40.2514 	 76.6978 	 6.6187 	 3.4000
  0.3000 	 1.1000 	 8.9019 	 10.9188 	 2.3565 	 36.4271 	 2.4725 	 42.9986 	 64.0202 	 6.5714 	 3.4000
  0.3000 	 1.2000 	 9.0391 	 10.8353 	 2.2081 	 39.3927 	 2.3832 	 45.4796 	 51.3038 	 6.0869 	 3.4000
  0.3000 	 1.3000 	 9.1553 	 10.7661 	 2.0813 	 42.6922 	 2.3114 	 47.7238 	 37.4789 	 5.0315 	 3.4000
  0.3000 	 1.4000 	 9.2548 	 10.7079 	 1.9716 	 46.9109 	 2.2527 	 49.7577 	 19.0506 	 2.8468 	 3.4000
  0.3000 	 1.0000 	 8.6839 	 11.2173 	 2.5897 	 33.2760 	 2.6417 	 39.7515 	 76.7943 	 6.4756 	 3.5000
  0.3000 	 1.1000 	 8.8534 	 11.1090 	 2.4086 	 36.0735 	 2.5249 	 42.5021 	 64.0177 	 6.4286 	 3.5000
  0.3000 	 1.2000 	 8.9947 	 11.0211 	 2.2563 	 39.0440 	 2.4322 	 44.9894 	 51.1716 	 5.9454 	 3.5000
  0.3000 	 1.3000 	 9.1143 	 10.9484 	 2.1262 	 42.3549 	 2.3576 	 47.2418 	 37.1401 	 4.8869 	 3.5000
  0.3000 	 1.4000 	 9.2168 	 10.8872 	 2.0137 	 46.6339 	 2.2967 	 49.2852 	 18.0884 	 2.6512 	 3.5000
  0.3000 	 1.0000 	 8.6306 	 11.4121 	 2.6463 	 32.9253 	 2.6982 	 39.2641 	 76.8861 	 6.3389 	 3.6000
  0.3000 	 1.1000 	 8.8050 	 11.2982 	 2.4605 	 35.7254 	 2.5771 	 42.0176 	 64.0137 	 6.2922 	 3.6000
  0.3000 	 1.2000 	 8.9503 	 11.2058 	 2.3043 	 38.7002 	 2.4811 	 44.5105 	 51.0411 	 5.8104 	 3.6000
  0.3000 	 1.3000 	 9.0733 	 11.1293 	 2.1709 	 42.0215 	 2.4037 	 46.7705 	 36.8059 	 4.7489 	 3.6000
  0.3000 	 1.4000 	 9.1787 	 11.0650 	 2.0556 	 46.3637 	 2.3405 	 48.8228 	 17.0967 	 2.4590 	 3.6000
  0.3000 	 1.0000 	 8.5773 	 11.6061 	 2.7028 	 32.5805 	 2.7546 	 38.7886 	 76.9734 	 6.2081 	 3.7000
  0.3000 	 1.1000 	 8.7565 	 11.4863 	 2.5123 	 35.3827 	 2.6292 	 41.5444 	 64.0083 	 6.1617 	 3.7000
  0.3000 	 1.2000 	 8.9059 	 11.3892 	 2.3522 	 38.3611 	 2.5298 	 44.0425 	 50.9125 	 5.6813 	 3.7000
  0.3000 	 1.3000 	 9.0323 	 11.3090 	 2.2155 	 41.6922 	 2.4496 	 46.3094 	 36.4760 	 4.6172 	 3.7000
  0.3000 	 1.4000 	 9.1406 	 11.2416 	 2.0974 	 46.1010 	 2.3840 	 48.3701 	 16.0691 	 2.2690 	 3.7000
  0.3000 	 1.0000 	 8.5240 	 11.7993 	 2.7591 	 32.2415 	 2.8108 	 38.3244 	 77.0567 	 6.0829 	 3.8000
  0.3000 	 1.1000 	 8.7081 	 11.6734 	 2.5639 	 35.0453 	 2.6812 	 41.0821 	 64.0017 	 6.0368 	 3.8000
  0.3000 	 1.2000 	 8.8615 	 11.5716 	 2.3999 	 38.0268 	 2.5783 	 43.5847 	 50.7857 	 5.5579 	 3.8000
  0.3000 	 1.3000 	 8.9913 	 11.4875 	 2.2600 	 41.3669 	 2.4953 	 45.8581 	 36.1504 	 4.4913 	 3.8000
  0.3000 	 1.4000 	 9.1026 	 11.4168 	 2.1390 	 45.8467 	 2.4274 	 47.9266 	 14.9977 	 2.0800 	 3.8000
  0.3000 	 1.0000 	 8.4707 	 11.9917 	 2.8154 	 31.9081 	 2.8669 	 37.8710 	 77.1361 	 5.9628 	 3.9000
  0.3000 	 1.1000 	 8.6596 	 11.8597 	 2.6155 	 34.7130 	 2.7331 	 40.6301 	 63.9939 	 5.9171 	 3.9000
  0.3000 	 1.2000 	 8.8171 	 11.7530 	 2.4475 	 37.6971 	 2.6267 	 43.1367 	 50.6607 	 5.4397 	 3.9000
  0.3000 	 1.3000 	 8.9503 	 11.6649 	 2.3043 	 41.0455 	 2.5408 	 45.4162 	 35.8292 	 4.3708 	 3.9000
  0.3000 	 1.4000 	 9.0645 	 11.5909 	 2.1805 	 45.6019 	 2.4706 	 47.4921 	 13.8712 	 1.8902 	 3.9000
  0.3000 	 1.0000 	 8.4174 	 12.1836 	 2.8715 	 31.5802 	 2.9229 	 37.4278 	 77.2120 	 5.8477 	 4.0000
  0.3000 	 1.1000 	 8.6112 	 12.0452 	 2.6669 	 34.3858 	 2.7848 	 40.1880 	 63.9853 	 5.8022 	 4.0000
  0.3000 	 1.2000 	 8.7727 	 11.9334 	 2.4950 	 37.3719 	 2.6749 	 42.6983 	 50.5377 	 5.3264 	 4.0000
  0.3000 	 1.3000 	 8.9093 	 11.8413 	 2.3485 	 40.7279 	 2.5862 	 44.9833 	 35.5121 	 4.2554 	 4.0000
  0.3000 	 1.4000 	 9.0264 	 11.7639 	 2.2219 	 45.3685 	 2.5136 	 47.0661 	 12.6740 	 1.6976 	 4.0000
  0.3000 	 1.0000 	 8.3641 	 12.3749 	 2.9275 	 31.2575 	 2.9789 	 36.9946 	 77.2846 	 5.7371 	 4.1000
  0.3000 	 1.1000 	 8.5628 	 12.2300 	 2.7182 	 34.0635 	 2.8364 	 39.7553 	 63.9758 	 5.6918 	 4.1000
  0.3000 	 1.2000 	 8.7283 	 12.1131 	 2.5424 	 37.0511 	 2.7231 	 42.2688 	 50.4165 	 5.2177 	 4.1000
  0.3000 	 1.3000 	 8.8683 	 12.0167 	 2.3926 	 40.4143 	 2.6315 	 44.5590 	 35.1992 	 4.1447 	 4.1000
  0.3000 	 1.4000 	 8.9884 	 11.9359 	 2.2631 	 45.1491 	 2.5565 	 46.6483 	 11.3830 	 1.4992 	 4.1000
  0.3000 	 1.0000 	 8.3108 	 12.5658 	 2.9834 	 30.9399 	 3.0347 	 36.5707 	 77.3541 	 5.6307 	 4.2000
  0.3000 	 1.1000 	 8.5143 	 12.4141 	 2.7694 	 33.7459 	 2.8879 	 39.3317 	 63.9656 	 5.5858 	 4.2000
  0.3000 	 1.2000 	 8.6839 	 12.2919 	 2.5897 	 36.7347 	 2.7710 	 41.8480 	 50.2972 	 5.1133 	 4.2000
  0.3000 	 1.3000 	 8.8273 	 12.1912 	 2.4366 	 40.1044 	 2.6766 	 44.1429 	 34.8903 	 4.0386 	 4.2000
  0.3000 	 1.4000 	 8.9503 	 12.1068 	 2.3043 	 44.9480 	 2.5992 	 46.2384 	 9.9604 	 1.2904 	 4.2000
  0.3000 	 1.0000 	 8.2576 	 12.7562 	 3.0392 	 30.6274 	 3.0904 	 36.1558 	 77.4207 	 5.5284 	 4.3000
  0.3000 	 1.1000 	 8.4659 	 12.5977 	 2.8205 	 33.4330 	 2.9393 	 38.9168 	 63.9548 	 5.4837 	 4.3000
  0.3000 	 1.2000 	 8.6395 	 12.4700 	 2.6369 	 36.4225 	 2.8189 	 41.4356 	 50.1797 	 5.0130 	 4.3000
  0.3000 	 1.3000 	 8.7863 	 12.3649 	 2.4804 	 39.7982 	 2.7216 	 43.7348 	 34.5853 	 3.9366 	 4.3000
  0.3000 	 1.4000 	 8.9123 	 12.2769 	 2.3453 	 44.7732 	 2.6418 	 45.8360 	 8.3381 	 1.0628 	 4.3000
  0.3000 	 1.0000 	 8.2043 	 12.9464 	 3.0950 	 30.3196 	 3.1461 	 35.7496 	 77.4846 	 5.4299 	 4.4000
  0.3000 	 1.1000 	 8.4174 	 12.7807 	 2.8715 	 33.1247 	 2.9906 	 38.5102 	 63.9434 	 5.3855 	 4.4000
  0.3000 	 1.2000 	 8.5951 	 12.6474 	 2.6840 	 36.1146 	 2.8667 	 41.0311 	 50.0642 	 4.9165 	 4.4000
  0.3000 	 1.3000 	 8.7454 	 12.5378 	 2.5242 	 39.4957 	 2.7664 	 43.3344 	 34.2843 	 3.8387 	 4.4000
  0.3000 	 1.4000 	 8.8742 	 12.4461 	 2.3863 	 44.6426 	 2.6842 	 45.4409 	 6.3632 	 0.7984 	 4.4000
  0.3000 	 1.0000 	 8.1510 	 13.1362 	 3.1506 	 30.0165 	 3.2016 	 35.3516 	 77.5459 	 5.3350 	 4.5000
  0.3000 	 1.1000 	 8.3690 	 12.9632 	 2.9224 	 32.8207 	 3.0418 	 38.1116 	 63.9315 	 5.2909 	 4.5000
  0.3000 	 1.2000 	 8.5506 	 12.8242 	 2.7310 	 35.8106 	 2.9143 	 40.6343 	 49.9504 	 4.8237 	 4.5000
  0.3000 	 1.3000 	 8.7044 	 12.7100 	 2.5679 	 39.1968 	 2.8112 	 42.9412 	 33.9871 	 3.7445 	 4.5000
  0.3000 	 1.4000 	 8.8361 	 12.6145 	 2.4271 	 44.6233 	 2.7265 	 45.0528 	 3.4772 	 0.4295 	 4.5000
  0.4000 	 1.0000 	 9.0036 	 10.0245 	 2.2088 	 33.0471 	 2.2996 	 42.9630 	 71.9714 	 9.9158 	 2.9000
  0.4000 	 1.1000 	 9.1441 	 9.9470 	 2.0553 	 35.7213 	 2.2077 	 45.6820 	 62.7212 	 9.9608 	 2.9000
  0.4000 	 1.2000 	 9.2612 	 9.8837 	 1.9259 	 38.4763 	 2.1351 	 48.1210 	 53.7694 	 9.6447 	 2.9000
  0.4000 	 1.3000 	 9.3602 	 9.8312 	 1.8150 	 41.3794 	 2.0768 	 50.3138 	 44.8052 	 8.9343 	 2.9000
  0.4000 	 1.4000 	 9.4451 	 9.7868 	 1.7189 	 44.5493 	 2.0294 	 52.2904 	 35.3674 	 7.7410 	 2.9000
  0.4000 	 1.5000 	 9.5187 	 9.7488 	 1.6346 	 48.2678 	 1.9903 	 54.0773 	 24.4332 	 5.8095 	 2.9000
  0.4000 	 1.0000 	 8.9503 	 10.2267 	 2.2666 	 32.7198 	 2.3571 	 42.3897 	 72.1404 	 9.6699 	 3.0000
  0.4000 	 1.1000 	 9.0957 	 10.1444 	 2.1084 	 35.4014 	 2.2610 	 45.1161 	 62.8050 	 9.7146 	 3.0000
  0.4000 	 1.2000 	 9.2168 	 10.0774 	 1.9752 	 38.1654 	 2.1851 	 47.5651 	 53.7518 	 9.3998 	 3.0000
  0.4000 	 1.3000 	 9.3192 	 10.0217 	 1.8611 	 41.0806 	 2.1242 	 49.7697 	 44.6594 	 8.6891 	 3.0000
  0.4000 	 1.4000 	 9.4071 	 9.9747 	 1.7621 	 44.2706 	 2.0746 	 51.7593 	 35.0399 	 7.4887 	 3.0000
  0.4000 	 1.5000 	 9.4832 	 9.9345 	 1.6754 	 48.0379 	 2.0337 	 53.5597 	 23.7681 	 5.5218 	 3.0000
  0.4000 	 1.0000 	 8.8970 	 10.4274 	 2.3242 	 32.3962 	 2.4143 	 41.8328 	 72.2997 	 9.4366 	 3.1000
  0.4000 	 1.1000 	 9.0472 	 10.3402 	 2.1614 	 35.0843 	 2.3142 	 44.5655 	 62.8822 	 9.4812 	 3.1000
  0.4000 	 1.2000 	 9.1724 	 10.2693 	 2.0242 	 37.8563 	 2.2350 	 47.0237 	 53.7305 	 9.1675 	 3.1000
  0.4000 	 1.3000 	 9.2783 	 10.2103 	 1.9069 	 40.7826 	 2.1714 	 49.2393 	 44.5127 	 8.4567 	 3.1000
  0.4000 	 1.4000 	 9.3690 	 10.1606 	 1.8051 	 43.9917 	 2.1195 	 51.2410 	 34.7129 	 7.2493 	 3.1000
  0.4000 	 1.5000 	 9.4477 	 10.1181 	 1.7160 	 47.8081 	 2.0768 	 53.0543 	 23.0948 	 5.2461 	 3.1000
  0.4000 	 1.0000 	 8.8437 	 10.6267 	 2.3815 	 32.0763 	 2.4714 	 41.2914 	 72.4503 	 9.2151 	 3.2000
  0.4000 	 1.1000 	 8.9988 	 10.5345 	 2.2141 	 34.7702 	 2.3671 	 44.0296 	 62.9534 	 9.2594 	 3.2000
  0.4000 	 1.2000 	 9.1279 	 10.4594 	 2.0730 	 37.5493 	 2.2846 	 46.4961 	 53.7059 	 8.9468 	 3.2000
  0.4000 	 1.3000 	 9.2373 	 10.3972 	 1.9524 	 40.4859 	 2.2183 	 48.7220 	 44.3653 	 8.2361 	 3.2000
  0.4000 	 1.4000 	 9.3310 	 10.3447 	 1.8479 	 43.7131 	 2.1642 	 50.7351 	 34.3868 	 7.0220 	 3.2000
  0.4000 	 1.5000 	 9.4122 	 10.2999 	 1.7564 	 47.5791 	 2.1195 	 52.5604 	 22.4125 	 4.9813 	 3.2000
  0.4000 	 1.0000 	 8.7904 	 10.8247 	 2.4387 	 31.7602 	 2.5283 	 40.7645 	 72.5927 	 9.0043 	 3.3000
  0.4000 	 1.1000 	 8.9503 	 10.7273 	 2.2666 	 34.4592 	 2.4199 	 43.5075 	 63.0191 	 9.0483 	 3.3000
  0.4000 	 1.2000 	 9.0835 	 10.6481 	 2.1217 	 37.2447 	 2.3340 	 45.9816 	 53.6787 	 8.7370 	 3.3000
  0.4000 	 1.3000 	 9.1963 	 10.5824 	 1.9978 	 40.1906 	 2.2649 	 48.2170 	 44.2177 	 8.0264 	 3.3000
  0.4000 	 1.4000 	 9.2929 	 10.5271 	 1.8905 	 43.4351 	 2.2086 	 50.2408 	 34.0618 	 6.8058 	 3.3000
  0.4000 	 1.5000 	 9.3766 	 10.4799 	 1.7966 	 47.3511 	 2.1620 	 52.0776 	 21.7207 	 4.7264 	 3.3000
  0.4000 	 1.0000 	 8.7372 	 11.0215 	 2.4957 	 31.4480 	 2.5851 	 40.2514 	 72.7277 	 8.8035 	 3.4000
  0.4000 	 1.1000 	 8.9019 	 10.9188 	 2.3189 	 34.1513 	 2.4725 	 42.9986 	 63.0799 	 8.8472 	 3.4000
  0.4000 	 1.2000 	 9.0391 	 10.8353 	 2.1702 	 36.9425 	 2.3832 	 45.4796 	 53.6490 	 8.5371 	 3.4000
  0.4000 	 1.3000 	 9.1553 	 10.7661 	 2.0430 	 39.8970 	 2.3114 	 47.7238 	 44.0702 	 7.8268 	 3.4000
  0.4000 	 1.4000 	 9.2548 	 10.7079 	 1.9329 	 43.1578 	 2.2527 	 49.7577 	 33.7382 	 6.5998 	 3.4000
  0.4000 	 1.5000 	 9.3411 	 10.6582 	 1.8365 	 47.1248 	 2.2043 	 51.6053 	 21.0185 	 4.4804 	 3.4000
  0.4000 	 1.0000 	 8.6839 	 11.2173 	 2.5526 	 31.1397 	 2.6417 	 39.7515 	 72.8558 	 8.6119 	 3.5000
  0.4000 	 1.1000 	 8.8534 	 11.1090 	 2.3711 	 33.8467 	 2.5249 	 42.5021 	 63.1363 	 8.6554 	 3.5000
  0.4000 	 1.2000 	 8.9947 	 11.0211 	 2.2185 	 36.6429 	 2.4322 	 44.9894 	 53.6174 	 8.3465 	 3.5000
  0.4000 	 1.3000 	 9.1143 	 10.9484 	 2.0880 	 39.6052 	 2.3576 	 47.2418 	 43.9230 	 7.6366 	 3.5000
  0.4000 	 1.4000 	 9.2168 	 10.8872 	 1.9752 	 42.8817 	 2.2967 	 49.2852 	 33.4162 	 6.4035 	 3.5000
  0.4000 	 1.5000 	 9.3056 	 10.8349 	 1.8763 	 46.9006 	 2.2464 	 51.1430 	 20.3048 	 4.2424 	 3.5000
  0.4000 	 1.0000 	 8.6306 	 11.4121 	 2.6093 	 30.8352 	 2.6982 	 39.2641 	 72.9776 	 8.4289 	 3.6000
  0.4000 	 1.1000 	 8.8050 	 11.2982 	 2.4232 	 33.5455 	 2.5771 	 42.0176 	 63.1886 	 8.4721 	 3.6000
  0.4000 	 1.2000 	 8.9503 	 11.2058 	 2.2666 	 36.3461 	 2.4811 	 44.5105 	 53.5840 	 8.1645 	 3.6000
  0.4000 	 1.3000 	 9.0733 	 11.1293 	 2.1329 	 39.3155 	 2.4037 	 46.7705 	 43.7764 	 7.4550 	 3.6000
  0.4000 	 1.4000 	 9.1787 	 11.0650 	 2.0172 	 42.6068 	 2.3405 	 48.8228 	 33.0959 	 6.2160 	 3.6000
  0.4000 	 1.5000 	 9.2701 	 11.0102 	 1.9160 	 46.6788 	 2.2882 	 50.6903 	 19.5783 	 4.0116 	 3.6000
  0.4000 	 1.0000 	 8.5773 	 11.6061 	 2.6659 	 30.5347 	 2.7546 	 38.7886 	 73.0936 	 8.2539 	 3.7000
  0.4000 	 1.1000 	 8.7565 	 11.4863 	 2.4750 	 33.2476 	 2.6292 	 41.5444 	 63.2371 	 8.2969 	 3.7000
  0.4000 	 1.2000 	 8.9059 	 11.3892 	 2.3146 	 36.0520 	 2.5298 	 44.0425 	 53.5492 	 7.9905 	 3.7000
  0.4000 	 1.3000 	 9.0323 	 11.3090 	 2.1776 	 39.0278 	 2.4496 	 46.3094 	 43.6305 	 7.2816 	 3.7000
  0.4000 	 1.4000 	 9.1406 	 11.2416 	 2.0591 	 42.3333 	 2.3840 	 48.3701 	 32.7775 	 6.0368 	 3.7000
  0.4000 	 1.5000 	 9.2345 	 11.1841 	 1.9555 	 46.4599 	 2.3298 	 50.2469 	 18.8375 	 3.7870 	 3.7000
  0.4000 	 1.0000 	 8.5240 	 11.7993 	 2.7223 	 30.2379 	 2.8108 	 38.3244 	 73.2040 	 8.0864 	 3.8000
  0.4000 	 1.1000 	 8.7081 	 11.6734 	 2.5268 	 32.9531 	 2.6812 	 41.0821 	 63.2823 	 8.1290 	 3.8000
  0.4000 	 1.2000 	 8.8615 	 11.5716 	 2.3624 	 35.7608 	 2.5783 	 43.5847 	 53.5131 	 7.8239 	 3.8000
  0.4000 	 1.3000 	 8.9913 	 11.4875 	 2.2222 	 38.7424 	 2.4953 	 45.8581 	 43.4855 	 7.1157 	 3.8000
  0.4000 	 1.4000 	 9.1026 	 11.4168 	 2.1009 	 42.0613 	 2.4274 	 47.9266 	 32.4610 	 5.8653 	 3.8000
  0.4000 	 1.5000 	 9.1990 	 11.3566 	 1.9948 	 46.2443 	 2.3712 	 49.8122 	 18.0803 	 3.5679 	 3.8000
  0.4000 	 1.0000 	 8.4707 	 11.9917 	 2.7786 	 29.9450 	 2.8669 	 37.8710 	 73.3094 	 7.9259 	 3.9000
  0.4000 	 1.1000 	 8.6596 	 11.8597 	 2.5784 	 32.6619 	 2.7331 	 40.6301 	 63.3244 	 7.9682 	 3.9000
  0.4000 	 1.2000 	 8.8171 	 11.7530 	 2.4102 	 35.4724 	 2.6267 	 43.1367 	 53.4760 	 7.6644 	 3.9000
  0.4000 	 1.3000 	 8.9503 	 11.6649 	 2.2666 	 38.4593 	 2.5408 	 45.4162 	 43.3415 	 6.9569 	 3.9000
  0.4000 	 1.4000 	 9.0645 	 11.5909 	 2.1425 	 41.7910 	 2.4706 	 47.4921 	 32.1465 	 5.7012 	 3.9000
  0.4000 	 1.5000 	 9.1635 	 11.5279 	 2.0340 	 46.0325 	 2.4124 	 49.3860 	 17.3045 	 3.3535 	 3.9000
  0.4000 	 1.0000 	 8.4174 	 12.1836 	 2.8348 	 29.6559 	 2.9229 	 37.4278 	 73.4101 	 7.7720 	 4.0000
  0.4000 	 1.1000 	 8.6112 	 12.0452 	 2.6299 	 32.3741 	 2.7848 	 40.1880 	 63.3637 	 7.8139 	 4.0000
  0.4000 	 1.2000 	 8.7727 	 11.9334 	 2.4578 	 35.1869 	 2.6749 	 42.6983 	 53.4380 	 7.5114 	 4.0000
  0.4000 	 1.3000 	 8.9093 	 11.8413 	 2.3109 	 38.1785 	 2.5862 	 44.9833 	 43.1986 	 6.8048 	 4.0000
  0.4000 	 1.4000 	 9.0264 	 11.7639 	 2.1840 	 41.5224 	 2.5136 	 47.0661 	 31.8342 	 5.5437 	 4.0000
  0.4000 	 1.5000 	 9.1279 	 11.6981 	 2.0730 	 45.8250 	 2.4534 	 48.9678 	 16.5073 	 3.1428 	 4.0000
  0.4000 	 1.0000 	 8.3641 	 12.3749 	 2.8909 	 29.3704 	 2.9789 	 36.9946 	 73.5064 	 7.6241 	 4.1000
  0.4000 	 1.1000 	 8.5628 	 12.2300 	 2.6813 	 32.0896 	 2.8364 	 39.7553 	 63.4003 	 7.6657 	 4.1000
  0.4000 	 1.2000 	 8.7283 	 12.1131 	 2.5052 	 34.9043 	 2.7231 	 42.2688 	 53.3993 	 7.3645 	 4.1000
  0.4000 	 1.3000 	 8.8683 	 12.0167 	 2.3551 	 37.9001 	 2.6315 	 44.5590 	 43.0569 	 6.6588 	 4.1000
  0.4000 	 1.4000 	 8.9884 	 11.9359 	 2.2253 	 41.2556 	 2.5565 	 46.6483 	 31.5240 	 5.3927 	 4.1000
  0.4000 	 1.5000 	 9.0924 	 11.8671 	 2.1120 	 45.6225 	 2.4943 	 48.5575 	 15.6852 	 2.9350 	 4.1000
  0.4000 	 1.0000 	 8.3108 	 12.5658 	 2.9468 	 29.0887 	 3.0347 	 36.5707 	 73.5985 	 7.4820 	 4.2000
  0.4000 	 1.1000 	 8.5143 	 12.4141 	 2.7325 	 31.8084 	 2.8879 	 39.3317 	 63.4345 	 7.5233 	 4.2000
  0.4000 	 1.2000 	 8.6839 	 12.2919 	 2.5526 	 34.6246 	 2.7710 	 41.8480 	 53.3600 	 7.2234 	 4.2000
  0.4000 	 1.3000 	 8.8273 	 12.1912 	 2.3992 	 37.6242 	 2.6766 	 44.1429 	 42.9164 	 6.5187 	 4.2000
  0.4000 	 1.4000 	 8.9503 	 12.1068 	 2.2666 	 40.9907 	 2.5992 	 46.2384 	 31.2159 	 5.2477 	 4.2000
  0.4000 	 1.5000 	 9.0569 	 12.0351 	 2.1508 	 45.4256 	 2.5350 	 48.1546 	 14.8337 	 2.7290 	 4.2000
  0.4000 	 1.0000 	 8.2576 	 12.7562 	 3.0027 	 28.8105 	 3.0904 	 36.1558 	 73.6868 	 7.3454 	 4.3000
  0.4000 	 1.1000 	 8.4659 	 12.5977 	 2.7837 	 31.5305 	 2.9393 	 38.9168 	 63.4665 	 7.3863 	 4.3000
  0.4000 	 1.2000 	 8.6395 	 12.4700 	 2.5999 	 34.3478 	 2.8189 	 41.4356 	 53.3203 	 7.0878 	 4.3000
  0.4000 	 1.3000 	 8.7863 	 12.3649 	 2.4431 	 37.3507 	 2.7216 	 43.7348 	 42.7773 	 6.3842 	 4.3000
  0.4000 	 1.4000 	 8.9123 	 12.2769 	 2.3077 	 40.7278 	 2.6418 	 45.8360 	 30.9100 	 5.1083 	 4.3000
  0.4000 	 1.5000 	 9.0214 	 12.2021 	 2.1895 	 45.2353 	 2.5756 	 47.7590 	 13.9471 	 2.5237 	 4.3000
  0.4000 	 1.0000 	 8.2043 	 12.9464 	 3.0585 	 28.5358 	 3.1461 	 35.7496 	 73.7715 	 7.2138 	 4.4000
  0.4000 	 1.1000 	 8.4174 	 12.7807 	 2.8348 	 31.2558 	 2.9906 	 38.5102 	 63.4965 	 7.2544 	 4.4000
  0.4000 	 1.2000 	 8.5951 	 12.6474 	 2.6470 	 34.0739 	 2.8667 	 41.0311 	 53.2802 	 6.9572 	 4.4000
  0.4000 	 1.3000 	 8.7454 	 12.5378 	 2.4870 	 37.0796 	 2.7664 	 43.3344 	 42.6396 	 6.2547 	 4.4000
  0.4000 	 1.4000 	 8.8742 	 12.4461 	 2.3488 	 40.4668 	 2.6842 	 45.4409 	 30.6063 	 4.9742 	 4.4000
  0.4000 	 1.5000 	 8.9858 	 12.3682 	 2.2281 	 45.0526 	 2.6160 	 47.3702 	 13.0179 	 2.3176 	 4.4000
  0.4000 	 1.0000 	 8.1510 	 13.1362 	 3.1142 	 28.2645 	 3.2016 	 35.3516 	 73.8528 	 7.0870 	 4.5000
  0.4000 	 1.1000 	 8.3690 	 12.9632 	 2.8858 	 30.9843 	 3.0418 	 38.1116 	 63.5246 	 7.1273 	 4.5000
  0.4000 	 1.2000 	 8.5506 	 12.8242 	 2.6941 	 33.8028 	 2.9143 	 40.6343 	 53.2399 	 6.8315 	 4.5000
  0.4000 	 1.3000 	 8.7044 	 12.7100 	 2.5307 	 36.8110 	 2.8112 	 42.9412 	 42.5033 	 6.1302 	 4.5000
  0.4000 	 1.4000 	 8.8361 	 12.6145 	 2.3897 	 40.2078 	 2.7265 	 45.0528 	 30.3048 	 4.8451 	 4.5000
  0.4000 	 1.5000 	 8.9503 	 12.5334 	 2.2666 	 44.8793 	 2.6563 	 46.9882 	 12.0359 	 2.1089 	 4.5000
  0.5000 	 1.0000 	 9.0036 	 10.0245 	 2.1619 	 30.5878 	 2.2996 	 42.9630 	 67.9143 	 12.3752 	 2.9000
  0.5000 	 1.1000 	 9.1441 	 9.9470 	 2.0078 	 33.1847 	 2.2077 	 45.6820 	 60.3361 	 12.4974 	 2.9000
  0.5000 	 1.2000 	 9.2612 	 9.8837 	 1.8777 	 35.8299 	 2.1351 	 48.1210 	 53.0790 	 12.2911 	 2.9000
  0.5000 	 1.3000 	 9.3602 	 9.8312 	 1.7663 	 38.5694 	 2.0768 	 50.3138 	 45.9761 	 11.7444 	 2.9000
  0.5000 	 1.4000 	 9.4451 	 9.7868 	 1.6696 	 41.4688 	 2.0294 	 52.2904 	 38.8234 	 10.8216 	 2.9000
  0.5000 	 1.5000 	 9.5187 	 9.7488 	 1.5846 	 44.6397 	 1.9903 	 54.0773 	 31.3100 	 9.4377 	 2.9000
  0.5000 	 1.6000 	 9.5831 	 9.7159 	 1.5093 	 48.3255 	 1.9578 	 55.6977 	 22.7883 	 7.3722 	 2.9000
  0.5000 	 1.0000 	 8.9503 	 10.2267 	 2.2198 	 30.3244 	 2.3571 	 42.3897 	 68.1258 	 12.0653 	 3.0000
  0.5000 	 1.1000 	 9.0957 	 10.1444 	 2.0611 	 32.9293 	 2.2610 	 45.1161 	 60.4822 	 12.1868 	 3.0000
  0.5000 	 1.2000 	 9.2168 	 10.0774 	 1.9273 	 35.5834 	 2.1851 	 47.5651 	 53.1491 	 11.9817 	 3.0000
  0.5000 	 1.3000 	 9.3192 	 10.0217 	 1.8126 	 38.3333 	 2.1242 	 49.7697 	 45.9557 	 11.4364 	 3.0000
  0.5000 	 1.4000 	 9.4071 	 9.9747 	 1.7131 	 41.2468 	 2.0746 	 51.7593 	 38.6898 	 10.5125 	 3.0000
  0.5000 	 1.5000 	 9.4832 	 9.9345 	 1.6258 	 44.4401 	 2.0337 	 53.5597 	 31.0207 	 9.1196 	 3.0000
  0.5000 	 1.6000 	 9.5498 	 9.8997 	 1.5484 	 48.1754 	 1.9996 	 55.1938 	 22.2334 	 7.0183 	 3.0000
  0.5000 	 1.0000 	 8.8970 	 10.4274 	 2.2776 	 30.0613 	 2.4143 	 41.8328 	 68.3252 	 11.7716 	 3.1000
  0.5000 	 1.1000 	 9.0472 	 10.3402 	 2.1142 	 32.6732 	 2.3142 	 44.5655 	 60.6185 	 11.8923 	 3.1000
  0.5000 	 1.2000 	 9.1724 	 10.2693 	 1.9765 	 35.3353 	 2.2350 	 47.0237 	 53.2115 	 11.6884 	 3.1000
  0.5000 	 1.3000 	 9.2783 	 10.2103 	 1.8586 	 38.0949 	 2.1714 	 49.2393 	 45.9295 	 11.1444 	 3.1000
  0.5000 	 1.4000 	 9.3690 	 10.1606 	 1.7564 	 41.0215 	 2.1195 	 51.2410 	 38.5521 	 10.2195 	 3.1000
  0.5000 	 1.5000 	 9.4477 	 10.1181 	 1.6666 	 44.2367 	 2.0768 	 53.0543 	 30.7274 	 8.8175 	 3.1000
  0.5000 	 1.6000 	 9.5165 	 10.0814 	 1.5872 	 48.0223 	 2.0411 	 54.7013 	 21.6665 	 6.6791 	 3.1000
  0.5000 	 1.0000 	 8.8437 	 10.6267 	 2.3351 	 29.7987 	 2.4714 	 41.2914 	 68.5134 	 11.4927 	 3.2000
  0.5000 	 1.1000 	 8.9988 	 10.5345 	 2.1671 	 32.4170 	 2.3671 	 44.0296 	 60.7457 	 11.6126 	 3.2000
  0.5000 	 1.2000 	 9.1279 	 10.4594 	 2.0256 	 35.0862 	 2.2846 	 46.4961 	 53.2668 	 11.4099 	 3.2000
  0.5000 	 1.3000 	 9.2373 	 10.3972 	 1.9044 	 37.8547 	 2.2183 	 48.7220 	 45.8983 	 10.8673 	 3.2000
  0.5000 	 1.4000 	 9.3310 	 10.3447 	 1.7994 	 40.7938 	 2.1642 	 50.7351 	 38.4109 	 9.9413 	 3.2000
  0.5000 	 1.5000 	 9.4122 	 10.2999 	 1.7073 	 44.0301 	 2.1195 	 52.5604 	 30.4307 	 8.5303 	 3.2000
  0.5000 	 1.6000 	 9.4832 	 10.2611 	 1.6258 	 47.8668 	 2.0823 	 54.2199 	 21.0876 	 6.3531 	 3.2000
  0.5000 	 1.0000 	 8.7904 	 10.8247 	 2.3924 	 29.5370 	 2.5283 	 40.7645 	 68.6914 	 11.2275 	 3.3000
  0.5000 	 1.1000 	 8.9503 	 10.7273 	 2.2198 	 32.1609 	 2.4199 	 43.5075 	 60.8647 	 11.3466 	 3.3000
  0.5000 	 1.2000 	 9.0835 	 10.6481 	 2.0744 	 34.8366 	 2.3340 	 45.9816 	 53.3159 	 11.1450 	 3.3000
  0.5000 	 1.3000 	 9.1963 	 10.5824 	 1.9500 	 37.6133 	 2.2649 	 48.2170 	 45.8627 	 10.6037 	 3.3000
  0.5000 	 1.4000 	 9.2929 	 10.5271 	 1.8422 	 40.5639 	 2.2086 	 50.2408 	 38.2669 	 9.6769 	 3.3000
  0.5000 	 1.5000 	 9.3766 	 10.4799 	 1.7477 	 43.8207 	 2.1620 	 52.0776 	 30.1314 	 8.2568 	 3.3000
  0.5000 	 1.6000 	 9.4499 	 10.4391 	 1.6641 	 47.7097 	 2.1232 	 53.7488 	 20.4965 	 6.0391 	 3.3000
  0.5000 	 1.0000 	 8.7372 	 11.0215 	 2.4496 	 29.2765 	 2.5851 	 40.2514 	 68.8601 	 10.9750 	 3.4000
  0.5000 	 1.1000 	 8.9019 	 10.9188 	 2.2723 	 31.9053 	 2.4725 	 42.9986 	 60.9762 	 11.0932 	 3.4000
  0.5000 	 1.2000 	 9.0391 	 10.8353 	 2.1231 	 34.5869 	 2.3832 	 45.4796 	 53.3595 	 10.8927 	 3.4000
  0.5000 	 1.3000 	 9.1553 	 10.7661 	 1.9954 	 37.3709 	 2.3114 	 47.7238 	 45.8234 	 10.3528 	 3.4000
  0.5000 	 1.4000 	 9.2548 	 10.7079 	 1.8848 	 40.3325 	 2.2527 	 49.7577 	 38.1206 	 9.4252 	 3.4000
  0.5000 	 1.5000 	 9.3411 	 10.6582 	 1.7879 	 43.6092 	 2.2043 	 51.6053 	 29.8298 	 7.9961 	 3.4000
  0.5000 	 1.6000 	 9.4166 	 10.6153 	 1.7022 	 47.5517 	 2.1639 	 53.2878 	 19.8928 	 5.7360 	 3.4000
  0.5000 	 1.0000 	 8.6839 	 11.2173 	 2.5066 	 29.0174 	 2.6417 	 39.7515 	 69.0202 	 10.7341 	 3.5000
  0.5000 	 1.1000 	 8.8534 	 11.1090 	 2.3247 	 31.6506 	 2.5249 	 42.5021 	 61.0809 	 10.8516 	 3.5000
  0.5000 	 1.2000 	 8.9947 	 11.0211 	 2.1715 	 34.3373 	 2.4322 	 44.9894 	 53.3980 	 10.6521 	 3.5000
  0.5000 	 1.3000 	 9.1143 	 10.9484 	 2.0406 	 37.1281 	 2.3576 	 47.2418 	 45.7808 	 10.1137 	 3.5000
  0.5000 	 1.4000 	 9.2168 	 10.8872 	 1.9273 	 40.0999 	 2.2967 	 49.2852 	 37.9726 	 9.1852 	 3.5000
  0.5000 	 1.5000 	 9.3056 	 10.8349 	 1.8280 	 43.3959 	 2.2464 	 51.1430 	 29.5264 	 7.7471 	 3.5000
  0.5000 	 1.6000 	 9.3833 	 10.7898 	 1.7402 	 47.3934 	 2.2043 	 52.8362 	 19.2759 	 5.4428 	 3.5000
  0.5000 	 1.0000 	 8.6306 	 11.4121 	 2.5634 	 28.7599 	 2.6982 	 39.2641 	 69.1722 	 10.5042 	 3.6000
  0.5000 	 1.1000 	 8.8050 	 11.2982 	 2.3768 	 31.3968 	 2.5771 	 42.0176 	 61.1793 	 10.6208 	 3.6000
  0.5000 	 1.2000 	 8.9503 	 11.2058 	 2.2198 	 34.0881 	 2.4811 	 44.5105 	 53.4320 	 10.4224 	 3.6000
  0.5000 	 1.3000 	 9.0733 	 11.1293 	 2.0857 	 36.8851 	 2.4037 	 46.7705 	 45.7353 	 9.8854 	 3.6000
  0.5000 	 1.4000 	 9.1787 	 11.0650 	 1.9695 	 39.8666 	 2.3405 	 48.8228 	 37.8231 	 8.9562 	 3.6000
  0.5000 	 1.5000 	 9.2701 	 11.0102 	 1.8678 	 43.1812 	 2.2882 	 50.6903 	 29.2215 	 7.5091 	 3.6000
  0.5000 	 1.6000 	 9.3500 	 10.9629 	 1.7779 	 47.2353 	 2.2445 	 52.3937 	 18.6451 	 5.1584 	 3.6000
  0.5000 	 1.0000 	 8.5773 	 11.6061 	 2.6201 	 28.5041 	 2.7546 	 38.7886 	 69.3169 	 10.2845 	 3.7000
  0.5000 	 1.1000 	 8.7565 	 11.4863 	 2.4288 	 31.1443 	 2.6292 	 41.5444 	 61.2720 	 10.4002 	 3.7000
  0.5000 	 1.2000 	 8.9059 	 11.3892 	 2.2680 	 33.8396 	 2.5298 	 44.0425 	 53.4619 	 10.2028 	 3.7000
  0.5000 	 1.3000 	 9.0323 	 11.3090 	 2.1305 	 36.6422 	 2.4496 	 46.3094 	 45.6875 	 9.6672 	 3.7000
  0.5000 	 1.4000 	 9.1406 	 11.2416 	 2.0116 	 39.6326 	 2.3840 	 48.3701 	 37.6725 	 8.7374 	 3.7000
  0.5000 	 1.5000 	 9.2345 	 11.1841 	 1.9075 	 42.9655 	 2.3298 	 50.2469 	 28.9156 	 7.2814 	 3.7000
  0.5000 	 1.6000 	 9.3167 	 11.1345 	 1.8155 	 47.0781 	 2.2844 	 51.9600 	 17.9992 	 4.8819 	 3.7000
  0.5000 	 1.0000 	 8.5240 	 11.7993 	 2.6766 	 28.2502 	 2.8108 	 38.3244 	 69.4548 	 10.0742 	 3.8000
  0.5000 	 1.1000 	 8.7081 	 11.6734 	 2.4807 	 30.8931 	 2.6812 	 41.0821 	 61.3594 	 10.1890 	 3.8000
  0.5000 	 1.2000 	 8.8615 	 11.5716 	 2.3159 	 33.5920 	 2.5783 	 43.5847 	 53.4882 	 9.9927 	 3.8000
  0.5000 	 1.3000 	 8.9913 	 11.4875 	 2.1753 	 36.3997 	 2.4953 	 45.8581 	 45.6375 	 9.4585 	 3.8000
  0.5000 	 1.4000 	 9.1026 	 11.4168 	 2.0535 	 39.3985 	 2.4274 	 47.9266 	 37.5212 	 8.5282 	 3.8000
  0.5000 	 1.5000 	 9.1990 	 11.3566 	 1.9470 	 42.7489 	 2.3712 	 49.8122 	 28.6088 	 7.0633 	 3.8000
  0.5000 	 1.6000 	 9.2834 	 11.3047 	 1.8529 	 46.9223 	 2.3242 	 51.5346 	 17.3370 	 4.6123 	 3.8000
  0.5000 	 1.0000 	 8.4707 	 11.9917 	 2.7330 	 27.9983 	 2.8669 	 37.8710 	 69.5862 	 9.8727 	 3.9000
  0.5000 	 1.1000 	 8.6596 	 11.8597 	 2.5324 	 30.6435 	 2.7331 	 40.6301 	 61.4420 	 9.9866 	 3.9000
  0.5000 	 1.2000 	 8.8171 	 11.7530 	 2.3638 	 33.3454 	 2.6267 	 43.1367 	 53.5111 	 9.7913 	 3.9000
  0.5000 	 1.3000 	 8.9503 	 11.6649 	 2.2198 	 36.1576 	 2.5408 	 45.4162 	 45.5857 	 9.2586 	 3.9000
  0.5000 	 1.4000 	 9.0645 	 11.5909 	 2.0953 	 39.1643 	 2.4706 	 47.4921 	 37.3694 	 8.3278 	 3.9000
  0.5000 	 1.5000 	 9.1635 	 11.5279 	 1.9864 	 42.5319 	 2.4124 	 49.3860 	 28.3013 	 6.8541 	 3.9000
  0.5000 	 1.6000 	 9.2501 	 11.4737 	 1.8902 	 46.7687 	 2.3637 	 51.1172 	 16.6567 	 4.3486 	 3.9000
  0.5000 	 1.0000 	 8.4174 	 12.1836 	 2.7893 	 27.7484 	 2.9229 	 37.4278 	 69.7118 	 9.6795 	 4.0000
  0.5000 	 1.1000 	 8.6112 	 12.0452 	 2.5840 	 30.3954 	 2.7848 	 40.1880 	 61.5200 	 9.7925 	 4.0000
  0.5000 	 1.2000 	 8.7727 	 11.9334 	 2.4115 	 33.1000 	 2.6749 	 42.6983 	 53.5310 	 9.5982 	 4.0000
  0.5000 	 1.3000 	 8.9093 	 11.8413 	 2.2643 	 35.9163 	 2.5862 	 44.9833 	 45.5324 	 9.0670 	 4.0000
  0.5000 	 1.4000 	 9.0264 	 11.7639 	 2.1369 	 38.9303 	 2.5136 	 47.0661 	 37.2173 	 8.1358 	 4.0000
  0.5000 	 1.5000 	 9.1279 	 11.6981 	 2.0256 	 42.3146 	 2.4534 	 48.9678 	 27.9934 	 6.6533 	 4.0000
  0.5000 	 1.6000 	 9.2168 	 11.6414 	 1.9273 	 46.6178 	 2.4031 	 50.7076 	 15.9563 	 4.0898 	 4.0000
  0.5000 	 1.0000 	 8.3641 	 12.3749 	 2.8455 	 27.5005 	 2.9789 	 36.9946 	 69.8318 	 9.4940 	 4.1000
  0.5000 	 1.1000 	 8.5628 	 12.2300 	 2.6355 	 30.1491 	 2.8364 	 39.7553 	 61.5939 	 9.6062 	 4.1000
  0.5000 	 1.2000 	 8.7283 	 12.1131 	 2.4591 	 32.8559 	 2.7231 	 42.2688 	 53.5481 	 9.4129 	 4.1000
  0.5000 	 1.3000 	 8.8683 	 12.0167 	 2.3086 	 35.6758 	 2.6315 	 44.5590 	 45.4779 	 8.8832 	 4.1000
  0.5000 	 1.4000 	 8.9884 	 11.9359 	 2.1784 	 38.6966 	 2.5565 	 46.6483 	 37.0652 	 7.9517 	 4.1000
  0.5000 	 1.5000 	 9.0924 	 11.8671 	 2.0647 	 42.0972 	 2.4943 	 48.5575 	 27.6853 	 6.4603 	 4.1000
  0.5000 	 1.6000 	 9.1835 	 11.8080 	 1.9642 	 46.4703 	 2.4423 	 50.3053 	 15.2332 	 3.8350 	 4.1000
  0.5000 	 1.0000 	 8.3108 	 12.5658 	 2.9015 	 27.2548 	 3.0347 	 36.5707 	 69.9467 	 9.3158 	 4.2000
  0.5000 	 1.1000 	 8.5143 	 12.4141 	 2.6869 	 29.9046 	 2.8879 	 39.3317 	 61.6639 	 9.4271 	 4.2000
  0.5000 	 1.2000 	 8.6839 	 12.2919 	 2.5066 	 32.6133 	 2.7710 	 41.8480 	 53.5628 	 9.2348 	 4.2000
  0.5000 	 1.3000 	 8.8273 	 12.1912 	 2.3528 	 35.4363 	 2.6766 	 44.1429 	 45.4222 	 8.7066 	 4.2000
  0.5000 	 1.4000 	 8.9503 	 12.1068 	 2.2198 	 38.4635 	 2.5992 	 46.2384 	 36.9132 	 7.7749 	 4.2000
  0.5000 	 1.5000 	 9.0569 	 12.0351 	 2.1036 	 41.8798 	 2.5350 	 48.1546 	 27.3770 	 6.2748 	 4.2000
  0.5000 	 1.6000 	 9.1502 	 11.9734 	 2.0011 	 46.3271 	 2.4813 	 49.9101 	 14.4841 	 3.5830 	 4.2000
  0.5000 	 1.0000 	 8.2576 	 12.7562 	 2.9575 	 27.0113 	 3.0904 	 36.1558 	 70.0567 	 9.1445 	 4.3000
  0.5000 	 1.1000 	 8.4659 	 12.5977 	 2.7381 	 29.6619 	 2.9393 	 38.9168 	 61.7303 	 9.2549 	 4.3000
  0.5000 	 1.2000 	 8.6395 	 12.4700 	 2.5539 	 32.3720 	 2.8189 	 41.4356 	 53.5752 	 9.0635 	 4.3000
  0.5000 	 1.3000 	 8.7863 	 12.3649 	 2.3968 	 35.1979 	 2.7216 	 43.7348 	 45.3655 	 8.5369 	 4.3000
  0.5000 	 1.4000 	 8.9123 	 12.2769 	 2.2611 	 38.2309 	 2.6418 	 45.8360 	 36.7614 	 7.6051 	 4.3000
  0.5000 	 1.5000 	 9.0214 	 12.2021 	 2.1425 	 41.6627 	 2.5756 	 47.7590 	 27.0687 	 6.0963 	 4.3000
  0.5000 	 1.6000 	 9.1168 	 12.1378 	 2.0378 	 46.1893 	 2.5201 	 49.5218 	 13.7049 	 3.3326 	 4.3000
  0.5000 	 1.0000 	 8.2043 	 12.9464 	 3.0133 	 26.7700 	 3.1461 	 35.7496 	 70.1623 	 8.9796 	 4.4000
  0.5000 	 1.1000 	 8.4174 	 12.7807 	 2.7893 	 29.4211 	 2.9906 	 38.5102 	 61.7934 	 9.0891 	 4.4000
  0.5000 	 1.2000 	 8.5951 	 12.6474 	 2.6012 	 32.1324 	 2.8667 	 41.0311 	 53.5855 	 8.8987 	 4.4000
  0.5000 	 1.3000 	 8.7454 	 12.5378 	 2.4408 	 34.9607 	 2.7664 	 43.3344 	 45.3082 	 8.3737 	 4.4000
  0.5000 	 1.4000 	 8.8742 	 12.4461 	 2.3022 	 37.9992 	 2.6842 	 45.4409 	 36.6101 	 7.4418 	 4.4000
  0.5000 	 1.5000 	 8.9858 	 12.3682 	 2.1812 	 41.4460 	 2.6160 	 47.3702 	 26.7605 	 5.9243 	 4.4000
  0.5000 	 1.6000 	 9.0835 	 12.3013 	 2.0744 	 46.0579 	 2.5588 	 49.1401 	 12.8901 	 3.0823 	 4.4000
  0.5000 	 1.0000 	 8.1510 	 13.1362 	 3.0691 	 26.5308 	 3.2016 	 35.3516 	 70.2635 	 8.8208 	 4.5000
  0.5000 	 1.1000 	 8.3690 	 12.9632 	 2.8404 	 29.1822 	 3.0418 	 38.1116 	 61.8534 	 8.9294 	 4.5000
  0.5000 	 1.2000 	 8.5506 	 12.8242 	 2.6483 	 31.8944 	 2.9143 	 40.6343 	 53.5940 	 8.7399 	 4.5000
  0.5000 	 1.3000 	 8.7044 	 12.7100 	 2.4847 	 34.7247 	 2.8112 	 42.9412 	 45.2502 	 8.2165 	 4.5000
  0.5000 	 1.4000 	 8.8361 	 12.6145 	 2.3433 	 37.7682 	 2.7265 	 45.0528 	 36.4593 	 7.2846 	 4.5000
  0.5000 	 1.5000 	 8.9503 	 12.5334 	 2.2198 	 41.2297 	 2.6563 	 46.9882 	 26.4524 	 5.7585 	 4.5000
  0.5000 	 1.6000 	 9.0502 	 12.4638 	 2.1109 	 45.9345 	 2.5974 	 48.7648 	 12.0326 	 2.8303 	 4.5000
  0.6000 	 1.0000 	 9.0036 	 10.0245 	 2.1067 	 28.1322 	 2.2996 	 42.9630 	 63.9927 	 14.8308 	 2.9000
  0.6000 	 1.1000 	 9.1441 	 9.9470 	 1.9519 	 30.6581 	 2.2077 	 45.6820 	 57.4902 	 15.0239 	 2.9000
  0.6000 	 1.2000 	 9.2612 	 9.8837 	 1.8211 	 33.2217 	 2.1351 	 48.1210 	 51.2996 	 14.8993 	 2.9000
  0.6000 	 1.3000 	 9.3602 	 9.8312 	 1.7089 	 35.8599 	 2.0768 	 50.3138 	 45.3101 	 14.4539 	 2.9000
  0.6000 	 1.4000 	 9.4451 	 9.7868 	 1.6114 	 38.6203 	 2.0294 	 52.2904 	 39.3983 	 13.6701 	 2.9000
  0.6000 	 1.5000 	 9.5187 	 9.7488 	 1.5256 	 41.5728 	 1.9903 	 54.0773 	 33.4044 	 12.5045 	 2.9000
  0.6000 	 1.6000 	 9.5831 	 9.7159 	 1.4495 	 44.8371 	 1.9578 	 55.6977 	 27.0774 	 10.8606 	 2.9000
  0.6000 	 1.7000 	 9.6399 	 9.6872 	 1.3813 	 48.6737 	 1.9304 	 57.1716 	 19.8896 	 8.4979 	 2.9000
  0.6000 	 1.0000 	 8.9503 	 10.2267 	 2.1649 	 27.9347 	 2.3571 	 42.3897 	 64.2476 	 14.4551 	 3.0000
  0.6000 	 1.1000 	 9.0957 	 10.1444 	 2.0055 	 30.4692 	 2.2610 	 45.1161 	 57.6936 	 14.6469 	 3.0000
  0.6000 	 1.2000 	 9.2168 	 10.0774 	 1.8710 	 33.0415 	 2.1851 	 47.5651 	 51.4435 	 14.5236 	 3.0000
  0.6000 	 1.3000 	 9.3192 	 10.0217 	 1.7556 	 35.6890 	 2.1242 	 49.7697 	 45.3853 	 14.0807 	 3.0000
  0.6000 	 1.4000 	 9.4071 	 9.9747 	 1.6553 	 38.4602 	 2.0746 	 51.7593 	 39.3920 	 13.2990 	 3.0000
  0.6000 	 1.5000 	 9.4832 	 9.9345 	 1.5672 	 41.4270 	 2.0337 	 53.5597 	 33.2972 	 12.1327 	 3.0000
  0.6000 	 1.6000 	 9.5498 	 9.8997 	 1.4890 	 44.7143 	 1.9996 	 55.1938 	 26.8324 	 10.4795 	 3.0000
  0.6000 	 1.7000 	 9.6086 	 9.8693 	 1.4191 	 48.6024 	 1.9709 	 56.6812 	 19.4135 	 8.0788 	 3.0000
  0.6000 	 1.0000 	 8.8970 	 10.4274 	 2.2229 	 27.7336 	 2.4143 	 41.8328 	 64.4876 	 14.0992 	 3.1000
  0.6000 	 1.1000 	 9.0472 	 10.3402 	 2.0589 	 30.2759 	 2.3142 	 44.5655 	 57.8838 	 14.2896 	 3.1000
  0.6000 	 1.2000 	 9.1724 	 10.2693 	 1.9205 	 32.8562 	 2.2350 	 47.0237 	 51.5759 	 14.1675 	 3.1000
  0.6000 	 1.3000 	 9.2783 	 10.2103 	 1.8019 	 35.5124 	 2.1714 	 49.2393 	 45.4502 	 13.7270 	 3.1000
  0.6000 	 1.4000 	 9.3690 	 10.1606 	 1.6989 	 38.2937 	 2.1195 	 51.2410 	 39.3769 	 12.9473 	 3.1000
  0.6000 	 1.5000 	 9.4477 	 10.1181 	 1.6085 	 41.2742 	 2.0768 	 53.0543 	 33.1817 	 11.7801 	 3.1000
  0.6000 	 1.6000 	 9.5165 	 10.0814 	 1.5282 	 44.5844 	 2.0411 	 54.7013 	 26.5780 	 10.1169 	 3.1000
  0.6000 	 1.7000 	 9.5773 	 10.0493 	 1.4565 	 48.5263 	 2.0110 	 56.2018 	 18.9186 	 7.6755 	 3.1000
  0.6000 	 1.0000 	 8.8437 	 10.6267 	 2.2806 	 27.5299 	 2.4714 	 41.2914 	 64.7141 	 13.7615 	 3.2000
  0.6000 	 1.1000 	 8.9988 	 10.5345 	 2.1120 	 30.0790 	 2.3671 	 44.0296 	 58.0621 	 13.9505 	 3.2000
  0.6000 	 1.2000 	 9.1279 	 10.4594 	 1.9698 	 32.6666 	 2.2846 	 46.4961 	 51.6978 	 13.8295 	 3.2000
  0.6000 	 1.3000 	 9.2373 	 10.3972 	 1.8480 	 35.3307 	 2.2183 	 48.7220 	 45.5062 	 13.3912 	 3.2000
  0.6000 	 1.4000 	 9.3310 	 10.3447 	 1.7423 	 38.1216 	 2.1642 	 50.7351 	 39.3538 	 12.6135 	 3.2000
  0.6000 	 1.5000 	 9.4122 	 10.2999 	 1.6495 	 41.1153 	 2.1195 	 52.5604 	 33.0589 	 11.4451 	 3.2000
  0.6000 	 1.6000 	 9.4832 	 10.2611 	 1.5672 	 44.4483 	 2.0823 	 54.2199 	 26.3151 	 9.7715 	 3.2000
  0.6000 	 1.7000 	 9.5459 	 10.2273 	 1.4937 	 48.4462 	 2.0509 	 55.7327 	 18.4053 	 7.2865 	 3.2000
  0.6000 	 1.0000 	 8.7904 	 10.8247 	 2.3381 	 27.3239 	 2.5283 	 40.7645 	 64.9282 	 13.4406 	 3.3000
  0.6000 	 1.1000 	 8.9503 	 10.7273 	 2.1649 	 29.8793 	 2.4199 	 43.5075 	 58.2294 	 13.6282 	 3.3000
  0.6000 	 1.2000 	 9.0835 	 10.6481 	 2.0189 	 32.4735 	 2.3340 	 45.9816 	 51.8102 	 13.5082 	 3.3000
  0.6000 	 1.3000 	 9.1963 	 10.5824 	 1.8939 	 35.1449 	 2.2649 	 48.2170 	 45.5541 	 13.0721 	 3.3000
  0.6000 	 1.4000 	 9.2929 	 10.5271 	 1.7854 	 37.9448 	 2.2086 	 50.2408 	 39.3239 	 12.2961 	 3.3000
  0.6000 	 1.5000 	 9.3766 	 10.4799 	 1.6902 	 40.9512 	 2.1620 	 52.0776 	 32.9299 	 11.1264 	 3.3000
  0.6000 	 1.6000 	 9.4499 	 10.4391 	 1.6059 	 44.3068 	 2.1232 	 53.7488 	 26.0449 	 9.4420 	 3.3000
  0.6000 	 1.7000 	 9.5146 	 10.4034 	 1.5305 	 48.3632 	 2.0905 	 55.2736 	 17.8736 	 6.9104 	 3.3000
  0.6000 	 1.0000 	 8.7372 	 11.0215 	 2.3955 	 27.1163 	 2.5851 	 40.2514 	 65.1310 	 13.1351 	 3.4000
  0.6000 	 1.1000 	 8.9019 	 10.9188 	 2.2176 	 29.6773 	 2.4725 	 42.9986 	 58.3869 	 13.3213 	 3.4000
  0.6000 	 1.2000 	 9.0391 	 10.8353 	 2.0678 	 32.2774 	 2.3832 	 45.4796 	 51.9142 	 13.2022 	 3.4000
  0.6000 	 1.3000 	 9.1553 	 10.7661 	 1.9395 	 34.9555 	 2.3114 	 47.7238 	 45.5948 	 12.7683 	 3.4000
  0.6000 	 1.4000 	 9.2548 	 10.7079 	 1.8283 	 37.7638 	 2.2527 	 49.7577 	 39.2880 	 11.9939 	 3.4000
  0.6000 	 1.5000 	 9.3411 	 10.6582 	 1.7307 	 40.7825 	 2.2043 	 51.6053 	 32.7954 	 10.8228 	 3.4000
  0.6000 	 1.6000 	 9.4166 	 10.6153 	 1.6444 	 44.1606 	 2.1639 	 53.2878 	 25.7680 	 9.1272 	 3.4000
  0.6000 	 1.7000 	 9.4832 	 10.5778 	 1.5672 	 48.2781 	 2.1298 	 54.8239 	 17.3231 	 6.5458 	 3.4000
  0.6000 	 1.0000 	 8.6839 	 11.2173 	 2.4526 	 26.9075 	 2.6417 	 39.7515 	 65.3232 	 12.8440 	 3.5000
  0.6000 	 1.1000 	 8.8534 	 11.1090 	 2.2701 	 29.4734 	 2.5249 	 42.5021 	 58.5352 	 13.0287 	 3.5000
  0.6000 	 1.2000 	 8.9947 	 11.0211 	 2.1164 	 32.0789 	 2.4322 	 44.9894 	 52.0104 	 12.9106 	 3.5000
  0.6000 	 1.3000 	 9.1143 	 10.9484 	 1.9849 	 34.7631 	 2.3576 	 47.2418 	 45.6291 	 12.4786 	 3.5000
  0.6000 	 1.4000 	 9.2168 	 10.8872 	 1.8710 	 37.5792 	 2.2967 	 49.2852 	 39.2467 	 11.7059 	 3.5000
  0.6000 	 1.5000 	 9.3056 	 10.8349 	 1.7710 	 40.6097 	 2.2464 	 51.1430 	 32.6562 	 10.5333 	 3.5000
  0.6000 	 1.6000 	 9.3833 	 10.7898 	 1.6826 	 44.0102 	 2.2043 	 52.8362 	 25.4853 	 8.8260 	 3.5000
  0.6000 	 1.7000 	 9.4519 	 10.7505 	 1.6036 	 48.1918 	 2.1688 	 54.3832 	 16.7533 	 6.1914 	 3.5000
  0.6000 	 1.0000 	 8.6306 	 11.4121 	 2.5096 	 26.6979 	 2.6982 	 39.2641 	 65.5059 	 12.5663 	 3.6000
  0.6000 	 1.1000 	 8.8050 	 11.2982 	 2.3225 	 29.2681 	 2.5771 	 42.0176 	 58.6752 	 12.7495 	 3.6000
  0.6000 	 1.2000 	 8.9503 	 11.2058 	 2.1649 	 31.8784 	 2.4811 	 44.5105 	 52.0996 	 12.6322 	 3.6000
  0.6000 	 1.3000 	 9.0733 	 11.1293 	 2.0302 	 34.5683 	 2.4037 	 46.7705 	 45.6576 	 12.2022 	 3.6000
  0.6000 	 1.4000 	 9.1787 	 11.0650 	 1.9134 	 37.3917 	 2.3405 	 48.8228 	 39.2007 	 11.4311 	 3.6000
  0.6000 	 1.5000 	 9.2701 	 11.0102 	 1.8111 	 40.4335 	 2.2882 	 50.6903 	 32.5130 	 10.2568 	 3.6000
  0.6000 	 1.6000 	 9.3500 	 10.9629 	 1.7206 	 43.8561 	 2.2445 	 52.3937 	 25.1973 	 8.5376 	 3.6000
  0.6000 	 1.7000 	 9.4205 	 10.9217 	 1.6398 	 48.1051 	 2.2076 	 53.9511 	 16.1633 	 5.8460 	 3.6000
  0.6000 	 1.0000 	 8.5773 	 11.6061 	 2.5664 	 26.4878 	 2.7546 	 38.7886 	 65.6796 	 12.3008 	 3.7000
  0.6000 	 1.1000 	 8.7565 	 11.4863 	 2.3746 	 29.0619 	 2.6292 	 41.5444 	 58.8075 	 12.4826 	 3.7000
  0.6000 	 1.2000 	 8.9059 	 11.3892 	 2.2132 	 31.6764 	 2.5298 	 44.0425 	 52.1823 	 12.3661 	 3.7000
  0.6000 	 1.3000 	 9.0323 	 11.3090 	 2.0753 	 34.3713 	 2.4496 	 46.3094 	 45.6809 	 11.9381 	 3.7000
  0.6000 	 1.4000 	 9.1406 	 11.2416 	 1.9558 	 37.2016 	 2.3840 	 48.3701 	 39.1506 	 11.1684 	 3.7000
  0.6000 	 1.5000 	 9.2345 	 11.1841 	 1.8511 	 40.2543 	 2.3298 	 50.2469 	 32.3663 	 9.9926 	 3.7000
  0.6000 	 1.6000 	 9.3167 	 11.1345 	 1.7585 	 43.6989 	 2.2844 	 51.9600 	 24.9045 	 8.2611 	 3.7000
  0.6000 	 1.7000 	 9.3892 	 11.0913 	 1.6759 	 48.0190 	 2.2462 	 53.5273 	 15.5518 	 5.5083 	 3.7000
  0.6000 	 1.0000 	 8.5240 	 11.7993 	 2.6230 	 26.2774 	 2.8108 	 38.3244 	 65.8450 	 12.0470 	 3.8000
  0.6000 	 1.1000 	 8.7081 	 11.6734 	 2.4266 	 28.8549 	 2.6812 	 41.0821 	 58.9327 	 12.2272 	 3.8000
  0.6000 	 1.2000 	 8.8615 	 11.5716 	 2.2614 	 31.4732 	 2.5783 	 43.5847 	 52.2592 	 12.1115 	 3.8000
  0.6000 	 1.3000 	 8.9913 	 11.4875 	 2.1202 	 34.1728 	 2.4953 	 45.8581 	 45.6995 	 11.6854 	 3.8000
  0.6000 	 1.4000 	 9.1026 	 11.4168 	 1.9979 	 37.0094 	 2.4274 	 47.9266 	 39.0969 	 10.9172 	 3.8000
  0.6000 	 1.5000 	 9.1990 	 11.3566 	 1.8908 	 40.0725 	 2.3712 	 49.8122 	 32.2166 	 9.7397 	 3.8000
  0.6000 	 1.6000 	 9.2834 	 11.3047 	 1.7961 	 43.5389 	 2.3242 	 51.5346 	 24.6075 	 7.9957 	 3.8000
  0.6000 	 1.7000 	 9.3578 	 11.2595 	 1.7117 	 47.9345 	 2.2845 	 53.1115 	 14.9170 	 5.1770 	 3.8000
  0.6000 	 1.0000 	 8.4707 	 11.9917 	 2.6796 	 26.0671 	 2.8669 	 37.8710 	 66.0027 	 11.8038 	 3.9000
  0.6000 	 1.1000 	 8.6596 	 11.8597 	 2.4785 	 28.6475 	 2.7331 	 40.6301 	 59.0513 	 11.9826 	 3.9000
  0.6000 	 1.2000 	 8.8171 	 11.7530 	 2.3094 	 31.2691 	 2.6267 	 43.1367 	 52.3307 	 11.8677 	 3.9000
  0.6000 	 1.3000 	 8.9503 	 11.6649 	 2.1649 	 33.9729 	 2.5408 	 45.4162 	 45.7139 	 11.4434 	 3.9000
  0.6000 	 1.4000 	 9.0645 	 11.5909 	 2.0399 	 36.8154 	 2.4706 	 47.4921 	 39.0400 	 10.6767 	 3.9000
  0.6000 	 1.5000 	 9.1635 	 11.5279 	 1.9304 	 39.8885 	 2.4124 	 49.3860 	 32.0643 	 9.4975 	 3.9000
  0.6000 	 1.6000 	 9.2501 	 11.4737 	 1.8336 	 43.3766 	 2.3637 	 51.1172 	 24.3065 	 7.7407 	 3.9000
  0.6000 	 1.7000 	 9.3265 	 11.4264 	 1.7474 	 47.8525 	 2.3226 	 52.7033 	 14.2567 	 4.8508 	 3.9000
  0.6000 	 1.0000 	 8.4174 	 12.1836 	 2.7360 	 25.8570 	 2.9229 	 37.4278 	 66.1533 	 11.5708 	 4.0000
  0.6000 	 1.1000 	 8.6112 	 12.0452 	 2.5302 	 28.4398 	 2.7848 	 40.1880 	 59.1639 	 11.7481 	 4.0000
  0.6000 	 1.2000 	 8.7727 	 11.9334 	 2.3573 	 31.0644 	 2.6749 	 42.6983 	 52.3972 	 11.6339 	 4.0000
  0.6000 	 1.3000 	 8.9093 	 11.8413 	 2.2095 	 33.7719 	 2.5862 	 44.9833 	 45.7245 	 11.2114 	 4.0000
  0.6000 	 1.4000 	 9.0264 	 11.7639 	 2.0817 	 36.6200 	 2.5136 	 47.0661 	 38.9804 	 10.4461 	 4.0000
  0.6000 	 1.5000 	 9.1279 	 11.6981 	 1.9698 	 39.7026 	 2.4534 	 48.9678 	 31.9098 	 9.2652 	 4.0000
  0.6000 	 1.6000 	 9.2168 	 11.6414 	 1.8710 	 43.2122 	 2.4031 	 50.7076 	 24.0019 	 7.4954 	 4.0000
  0.6000 	 1.7000 	 9.2951 	 11.5920 	 1.7829 	 47.7742 	 2.3605 	 52.3024 	 13.5677 	 4.5282 	 4.0000
  0.6000 	 1.0000 	 8.3641 	 12.3749 	 2.7923 	 25.6474 	 2.9789 	 36.9946 	 66.2971 	 11.3472 	 4.1000
  0.6000 	 1.1000 	 8.5628 	 12.2300 	 2.5819 	 28.2323 	 2.8364 	 39.7553 	 59.2709 	 11.5230 	 4.1000
  0.6000 	 1.2000 	 8.7283 	 12.1131 	 2.4050 	 30.8593 	 2.7231 	 42.2688 	 52.4593 	 11.4095 	 4.1000
  0.6000 	 1.3000 	 8.8683 	 12.0167 	 2.2540 	 33.5702 	 2.6315 	 44.5590 	 45.7317 	 10.9888 	 4.1000
  0.6000 	 1.4000 	 8.9884 	 11.9359 	 2.1234 	 36.4233 	 2.5565 	 46.6483 	 38.9183 	 10.2250 	 4.1000
  0.6000 	 1.5000 	 9.0924 	 11.8671 	 2.0091 	 39.5151 	 2.4943 	 48.5575 	 31.7535 	 9.0424 	 4.1000
  0.6000 	 1.6000 	 9.1835 	 11.8080 	 1.9081 	 43.0461 	 2.4423 	 50.3053 	 23.6939 	 7.2592 	 4.1000
  0.6000 	 1.7000 	 9.2638 	 11.7565 	 1.8182 	 47.7010 	 2.3983 	 51.9086 	 12.8463 	 4.2076 	 4.1000
  0.6000 	 1.0000 	 8.3108 	 12.5658 	 2.8484 	 25.4383 	 3.0347 	 36.5707 	 66.4348 	 11.1324 	 4.2000
  0.6000 	 1.1000 	 8.5143 	 12.4141 	 2.6333 	 28.0249 	 2.8879 	 39.3317 	 59.3726 	 11.3068 	 4.2000
  0.6000 	 1.2000 	 8.6839 	 12.2919 	 2.4526 	 30.6541 	 2.7710 	 41.8480 	 52.5172 	 11.1939 	 4.2000
  0.6000 	 1.3000 	 8.8273 	 12.1912 	 2.2983 	 33.3680 	 2.6766 	 44.1429 	 45.7357 	 10.7750 	 4.2000
  0.6000 	 1.4000 	 8.9503 	 12.1068 	 2.1649 	 36.2258 	 2.5992 	 46.2384 	 38.8541 	 10.0126 	 4.2000
  0.6000 	 1.5000 	 9.0569 	 12.0351 	 2.0482 	 39.3263 	 2.5350 	 48.1546 	 31.5957 	 8.8284 	 4.2000
  0.6000 	 1.6000 	 9.1502 	 11.9734 	 1.9452 	 42.8785 	 2.4813 	 49.9101 	 23.3829 	 7.0316 	 4.2000
  0.6000 	 1.7000 	 9.2324 	 11.9197 	 1.8534 	 47.6346 	 2.4358 	 51.5215 	 12.0870 	 3.8869 	 4.2000
  0.6000 	 1.0000 	 8.2576 	 12.7562 	 2.9045 	 25.2298 	 3.0904 	 36.1558 	 66.5666 	 10.9260 	 4.3000
  0.6000 	 1.1000 	 8.4659 	 12.5977 	 2.6847 	 27.8179 	 2.9393 	 38.9168 	 59.4695 	 11.0989 	 4.3000
  0.6000 	 1.2000 	 8.6395 	 12.4700 	 2.5001 	 30.4489 	 2.8189 	 41.4356 	 52.5712 	 10.9866 	 4.3000
  0.6000 	 1.3000 	 8.7863 	 12.3649 	 2.3425 	 33.1654 	 2.7216 	 43.7348 	 45.7369 	 10.5694 	 4.3000
  0.6000 	 1.4000 	 8.9123 	 12.2769 	 2.2063 	 36.0275 	 2.6418 	 45.8360 	 38.7880 	 9.8086 	 4.3000
  0.6000 	 1.5000 	 9.0214 	 12.2021 	 2.0872 	 39.1363 	 2.5756 	 47.7590 	 31.4366 	 8.6226 	 4.3000
  0.6000 	 1.6000 	 9.1168 	 12.1378 	 1.9821 	 42.7097 	 2.5201 	 49.5218 	 23.0691 	 6.8121 	 4.3000
  0.6000 	 1.7000 	 9.2011 	 12.0819 	 1.8885 	 47.5770 	 2.4732 	 51.1409 	 11.2830 	 3.5640 	 4.3000
  0.6000 	 1.0000 	 8.2043 	 12.9464 	 2.9604 	 25.0222 	 3.1461 	 35.7496 	 66.6930 	 10.7273 	 4.4000
  0.6000 	 1.1000 	 8.4174 	 12.7807 	 2.7360 	 27.6113 	 2.9906 	 38.5102 	 59.5618 	 10.8988 	 4.4000
  0.6000 	 1.2000 	 8.5951 	 12.6474 	 2.5475 	 30.2439 	 2.8667 	 41.0311 	 52.6217 	 10.7872 	 4.4000
  0.6000 	 1.3000 	 8.7454 	 12.5378 	 2.3866 	 32.9626 	 2.7664 	 43.3344 	 45.7356 	 10.3717 	 4.4000
  0.6000 	 1.4000 	 8.8742 	 12.4461 	 2.2476 	 35.8286 	 2.6842 	 45.4409 	 38.7203 	 9.6123 	 4.4000
  0.6000 	 1.5000 	 8.9858 	 12.3682 	 2.1261 	 38.9455 	 2.6160 	 47.3702 	 31.2764 	 8.4247 	 4.4000
  0.6000 	 1.6000 	 9.0835 	 12.3013 	 2.0189 	 42.5400 	 2.5588 	 49.1401 	 22.7525 	 6.6001 	 4.4000
  0.6000 	 1.7000 	 9.1697 	 12.2431 	 1.9234 	 47.5311 	 2.5104 	 50.7667 	 10.4242 	 3.2356 	 4.4000
  0.6000 	 1.0000 	 8.1510 	 13.1362 	 3.0163 	 24.8155 	 3.2016 	 35.3516 	 66.8142 	 10.5361 	 4.5000
  0.6000 	 1.1000 	 8.3690 	 12.9632 	 2.7871 	 27.4054 	 3.0418 	 38.1116 	 59.6500 	 10.7062 	 4.5000
  0.6000 	 1.2000 	 8.5506 	 12.8242 	 2.5947 	 30.0392 	 2.9143 	 40.6343 	 52.6689 	 10.5951 	 4.5000
  0.6000 	 1.3000 	 8.7044 	 12.7100 	 2.4306 	 32.7599 	 2.8112 	 42.9412 	 45.7320 	 10.1814 	 4.5000
  0.6000 	 1.4000 	 8.8361 	 12.6145 	 2.2888 	 35.6295 	 2.7265 	 45.0528 	 38.6513 	 9.4234 	 4.5000
  0.6000 	 1.5000 	 8.9503 	 12.5334 	 2.1649 	 38.7540 	 2.6563 	 46.9882 	 31.1155 	 8.2342 	 4.5000
  0.6000 	 1.6000 	 9.0502 	 12.4638 	 2.0556 	 42.3695 	 2.5974 	 48.7648 	 22.4333 	 6.3953 	 4.5000
  0.6000 	 1.7000 	 9.1384 	 12.4033 	 1.9582 	 47.5010 	 2.5475 	 50.3985 	 9.4963 	 2.8976 	 4.5000
  0.7000 	 1.0000 	 9.0036 	 10.0245 	 2.0443 	 25.6739 	 2.2996 	 42.9630 	 60.2197 	 17.2891 	 2.9000
  0.7000 	 1.1000 	 9.1441 	 9.9470 	 1.8886 	 28.1302 	 2.2077 	 45.6820 	 54.4536 	 17.5518 	 2.9000
  0.7000 	 1.2000 	 9.2612 	 9.8837 	 1.7569 	 30.6264 	 2.1351 	 48.1210 	 48.9838 	 17.4947 	 2.9000
  0.7000 	 1.3000 	 9.3602 	 9.8312 	 1.6438 	 33.1951 	 2.0768 	 50.3138 	 43.7264 	 17.1187 	 2.9000
  0.7000 	 1.4000 	 9.4451 	 9.7868 	 1.5453 	 35.8769 	 2.0294 	 52.2904 	 38.5920 	 16.4135 	 2.9000
  0.7000 	 1.5000 	 9.5187 	 9.7488 	 1.4585 	 38.7267 	 1.9903 	 54.0773 	 33.4743 	 15.3506 	 2.9000
  0.7000 	 1.6000 	 9.5831 	 9.7159 	 1.3813 	 41.8296 	 1.9578 	 55.6977 	 28.2272 	 13.8681 	 2.9000
  0.7000 	 1.7000 	 9.6399 	 9.6872 	 1.3120 	 45.3383 	 1.9304 	 57.1716 	 22.6040 	 11.8333 	 2.9000
  0.7000 	 1.8000 	 9.6904 	 9.6618 	 1.2494 	 49.6115 	 1.9071 	 58.5163 	 16.0388 	 8.9048 	 2.9000
  0.7000 	 1.0000 	 8.9503 	 10.2267 	 2.1028 	 25.5446 	 2.3571 	 42.3897 	 60.5189 	 16.8451 	 3.0000
  0.7000 	 1.1000 	 9.0957 	 10.1444 	 1.9426 	 28.0103 	 2.2610 	 45.1161 	 54.7121 	 17.1057 	 3.0000
  0.7000 	 1.2000 	 9.2168 	 10.0774 	 1.8071 	 30.5152 	 2.1851 	 47.5651 	 49.1953 	 17.0499 	 3.0000
  0.7000 	 1.3000 	 9.3192 	 10.0217 	 1.6908 	 33.0921 	 2.1242 	 49.7697 	 43.8842 	 16.6776 	 3.0000
  0.7000 	 1.4000 	 9.4071 	 9.9747 	 1.5896 	 35.7818 	 2.0746 	 51.7593 	 38.6882 	 15.9775 	 3.0000
  0.7000 	 1.5000 	 9.4832 	 9.9345 	 1.5005 	 38.6401 	 2.0337 	 53.5597 	 33.4980 	 14.9196 	 3.0000
  0.7000 	 1.6000 	 9.5498 	 9.8997 	 1.4214 	 41.7540 	 1.9996 	 55.1938 	 28.1605 	 13.4398 	 3.0000
  0.7000 	 1.7000 	 9.6086 	 9.8693 	 1.3504 	 45.2823 	 1.9709 	 56.6812 	 22.4125 	 11.3990 	 3.0000
  0.7000 	 1.8000 	 9.6608 	 9.8425 	 1.2863 	 49.6097 	 1.9465 	 58.0393 	 15.6267 	 8.4296 	 3.0000
  0.7000 	 1.0000 	 8.8970 	 10.4274 	 2.1610 	 25.4079 	 2.4143 	 41.8328 	 60.8004 	 16.4249 	 3.1000
  0.7000 	 1.1000 	 9.0472 	 10.3402 	 1.9962 	 27.8821 	 2.3142 	 44.5655 	 54.9542 	 16.6834 	 3.1000
  0.7000 	 1.2000 	 9.1724 	 10.2693 	 1.8570 	 30.3950 	 2.2350 	 47.0237 	 49.3914 	 16.6287 	 3.1000
  0.7000 	 1.3000 	 9.2783 	 10.2103 	 1.7376 	 32.9796 	 2.1714 	 49.2393 	 44.0276 	 16.2598 	 3.1000
  0.7000 	 1.4000 	 9.3690 	 10.1606 	 1.6337 	 35.6768 	 2.1195 	 51.2410 	 38.7707 	 15.5643 	 3.1000
  0.7000 	 1.5000 	 9.4477 	 10.1181 	 1.5423 	 38.5434 	 2.0768 	 53.0543 	 33.5082 	 14.5108 	 3.1000
  0.7000 	 1.6000 	 9.5165 	 10.0814 	 1.4611 	 41.6686 	 2.0411 	 54.7013 	 28.0800 	 13.0327 	 3.1000
  0.7000 	 1.7000 	 9.5773 	 10.0493 	 1.3884 	 45.2177 	 2.0110 	 56.2018 	 22.2044 	 10.9841 	 3.1000
  0.7000 	 1.8000 	 9.6312 	 10.0210 	 1.3227 	 49.6048 	 1.9855 	 57.5726 	 15.1847 	 7.9678 	 3.1000
  0.7000 	 1.0000 	 8.8437 	 10.6267 	 2.2190 	 25.2649 	 2.4714 	 41.2914 	 61.0660 	 16.0264 	 3.2000
  0.7000 	 1.1000 	 8.9988 	 10.5345 	 2.0496 	 27.7468 	 2.3671 	 44.0296 	 55.1813 	 16.2828 	 3.2000
  0.7000 	 1.2000 	 9.1279 	 10.4594 	 1.9066 	 30.2670 	 2.2846 	 46.4961 	 49.5736 	 16.2291 	 3.2000
  0.7000 	 1.3000 	 9.2373 	 10.3972 	 1.7840 	 32.8586 	 2.2183 	 48.7220 	 44.1580 	 15.8634 	 3.2000
  0.7000 	 1.4000 	 9.3310 	 10.3447 	 1.6774 	 35.5630 	 2.1642 	 50.7351 	 38.8410 	 15.1721 	 3.2000
  0.7000 	 1.5000 	 9.4122 	 10.2999 	 1.5837 	 38.4378 	 2.1195 	 52.5604 	 33.5067 	 14.1226 	 3.2000
  0.7000 	 1.6000 	 9.4832 	 10.2611 	 1.5005 	 41.5745 	 2.0823 	 54.2199 	 27.9873 	 12.6454 	 3.2000
  0.7000 	 1.7000 	 9.5459 	 10.2273 	 1.4261 	 45.1455 	 2.0509 	 55.7327 	 21.9815 	 10.5872 	 3.2000
  0.7000 	 1.8000 	 9.6016 	 10.1975 	 1.3589 	 49.5980 	 2.0242 	 57.1158 	 14.7131 	 7.5178 	 3.2000
  0.7000 	 1.0000 	 8.7904 	 10.8247 	 2.2767 	 25.1164 	 2.5283 	 40.7645 	 61.3168 	 15.6480 	 3.3000
  0.7000 	 1.1000 	 8.9503 	 10.7273 	 2.1028 	 27.6053 	 2.4199 	 43.5075 	 55.3949 	 15.9022 	 3.3000
  0.7000 	 1.2000 	 9.0835 	 10.6481 	 1.9560 	 30.1322 	 2.3340 	 45.9816 	 49.7433 	 15.8495 	 3.3000
  0.7000 	 1.3000 	 9.1963 	 10.5824 	 1.8302 	 32.7303 	 2.2649 	 48.2170 	 44.2769 	 15.4867 	 3.3000
  0.7000 	 1.4000 	 9.2929 	 10.5271 	 1.7209 	 35.4414 	 2.2086 	 50.2408 	 38.9004 	 14.7994 	 3.3000
  0.7000 	 1.5000 	 9.3766 	 10.4799 	 1.6249 	 38.3243 	 2.1620 	 52.0776 	 33.4946 	 13.7533 	 3.3000
  0.7000 	 1.6000 	 9.4499 	 10.4391 	 1.5397 	 41.4726 	 2.1232 	 53.7488 	 27.8838 	 12.2762 	 3.3000
  0.7000 	 1.7000 	 9.5146 	 10.4034 	 1.4634 	 45.0664 	 2.0905 	 55.2736 	 21.7451 	 10.2072 	 3.3000
  0.7000 	 1.8000 	 9.5720 	 10.3721 	 1.3947 	 49.5903 	 2.0626 	 56.6684 	 14.2119 	 7.0780 	 3.3000
  0.7000 	 1.0000 	 8.7372 	 11.0215 	 2.3343 	 24.9633 	 2.5851 	 40.2514 	 61.5542 	 15.2881 	 3.4000
  0.7000 	 1.1000 	 8.9019 	 10.9188 	 2.1557 	 27.4585 	 2.4725 	 42.9986 	 55.5960 	 15.5401 	 3.4000
  0.7000 	 1.2000 	 9.0391 	 10.8353 	 2.0052 	 29.9914 	 2.3832 	 45.4796 	 49.9015 	 15.4882 	 3.4000
  0.7000 	 1.3000 	 9.1553 	 10.7661 	 1.8761 	 32.5955 	 2.3114 	 47.7238 	 44.3852 	 15.1282 	 3.4000
  0.7000 	 1.4000 	 9.2548 	 10.7079 	 1.7641 	 35.3131 	 2.2527 	 49.7577 	 38.9502 	 14.4446 	 3.4000
  0.7000 	 1.5000 	 9.3411 	 10.6582 	 1.6658 	 38.2037 	 2.2043 	 51.6053 	 33.4733 	 13.4016 	 3.4000
  0.7000 	 1.6000 	 9.4166 	 10.6153 	 1.5786 	 41.3637 	 2.1639 	 53.2878 	 27.7707 	 11.9241 	 3.4000
  0.7000 	 1.7000 	 9.4832 	 10.5778 	 1.5005 	 44.9811 	 2.1298 	 54.8239 	 21.4964 	 9.8427 	 3.4000
  0.7000 	 1.8000 	 9.5424 	 10.5448 	 1.4302 	 49.5831 	 2.1008 	 56.2300 	 13.6800 	 6.6469 	 3.4000
  0.7000 	 1.0000 	 8.6839 	 11.2173 	 2.3916 	 24.8062 	 2.6417 	 39.7515 	 61.7792 	 14.9453 	 3.5000
  0.7000 	 1.1000 	 8.8534 	 11.1090 	 2.2085 	 27.3070 	 2.5249 	 42.5021 	 55.7857 	 15.1951 	 3.5000
  0.7000 	 1.2000 	 8.9947 	 11.0211 	 2.0541 	 29.8455 	 2.4322 	 44.9894 	 50.0494 	 15.1440 	 3.5000
  0.7000 	 1.3000 	 9.1143 	 10.9484 	 1.9219 	 32.4552 	 2.3576 	 47.2418 	 44.4841 	 14.7866 	 3.5000
  0.7000 	 1.4000 	 9.2168 	 10.8872 	 1.8071 	 35.1787 	 2.2967 	 49.2852 	 38.9912 	 14.1064 	 3.5000
  0.7000 	 1.5000 	 9.3056 	 10.8349 	 1.7064 	 38.0769 	 2.2464 	 51.1430 	 33.4438 	 13.0662 	 3.5000
  0.7000 	 1.6000 	 9.3833 	 10.7898 	 1.6172 	 41.2485 	 2.2043 	 52.8362 	 27.6492 	 11.5877 	 3.5000
  0.7000 	 1.7000 	 9.4519 	 10.7505 	 1.5374 	 44.8903 	 2.1688 	 54.3832 	 21.2365 	 9.4928 	 3.5000
  0.7000 	 1.8000 	 9.5128 	 10.7159 	 1.4655 	 49.5775 	 2.1386 	 55.8001 	 13.1163 	 6.2226 	 3.5000
  0.7000 	 1.0000 	 8.6306 	 11.4121 	 2.4488 	 24.6457 	 2.6982 	 39.2641 	 61.9928 	 14.6184 	 3.6000
  0.7000 	 1.1000 	 8.8050 	 11.2982 	 2.2610 	 27.1516 	 2.5771 	 42.0176 	 55.9650 	 14.8660 	 3.6000
  0.7000 	 1.2000 	 8.9503 	 11.2058 	 2.1028 	 29.6950 	 2.4811 	 44.5105 	 50.1878 	 14.8155 	 3.6000
  0.7000 	 1.3000 	 9.0733 	 11.1293 	 1.9674 	 32.3098 	 2.4037 	 46.7705 	 44.5743 	 14.4607 	 3.6000
  0.7000 	 1.4000 	 9.1787 	 11.0650 	 1.8499 	 35.0390 	 2.3405 	 48.8228 	 39.0244 	 13.7837 	 3.6000
  0.7000 	 1.5000 	 9.2701 	 11.0102 	 1.7469 	 37.9444 	 2.2882 	 50.6903 	 33.4070 	 12.7459 	 3.6000
  0.7000 	 1.6000 	 9.3500 	 10.9629 	 1.6556 	 41.1277 	 2.2445 	 52.3937 	 27.5201 	 11.2661 	 3.6000
  0.7000 	 1.7000 	 9.4205 	 10.9217 	 1.5740 	 44.7946 	 2.2076 	 53.9511 	 20.9664 	 9.1565 	 3.6000
  0.7000 	 1.8000 	 9.4832 	 10.8854 	 1.5005 	 49.5752 	 2.1762 	 55.3785 	 12.5183 	 5.8033 	 3.6000
  0.7000 	 1.0000 	 8.5773 	 11.6061 	 2.5058 	 24.4824 	 2.7546 	 38.7886 	 62.1959 	 14.3062 	 3.7000
  0.7000 	 1.1000 	 8.7565 	 11.4863 	 2.3134 	 26.9928 	 2.6292 	 41.5444 	 56.1346 	 14.5517 	 3.7000
  0.7000 	 1.2000 	 8.9059 	 11.3892 	 2.1513 	 29.5407 	 2.5298 	 44.0425 	 50.3175 	 14.5017 	 3.7000
  0.7000 	 1.3000 	 9.0323 	 11.3090 	 2.0127 	 32.1602 	 2.4496 	 46.3094 	 44.6568 	 14.1493 	 3.7000
  0.7000 	 1.4000 	 9.1406 	 11.2416 	 1.8925 	 34.8947 	 2.3840 	 48.3701 	 39.0505 	 13.4754 	 3.7000
  0.7000 	 1.5000 	 9.2345 	 11.1841 	 1.7871 	 37.8070 	 2.3298 	 50.2469 	 33.3637 	 12.4399 	 3.7000
  0.7000 	 1.6000 	 9.3167 	 11.1345 	 1.6938 	 41.0018 	 2.2844 	 51.9600 	 27.3843 	 10.9582 	 3.7000
  0.7000 	 1.7000 	 9.3892 	 11.0913 	 1.6104 	 44.6944 	 2.2462 	 53.5273 	 20.6866 	 8.8329 	 3.7000
  0.7000 	 1.8000 	 9.4536 	 11.0533 	 1.5354 	 49.5780 	 2.2136 	 54.9648 	 11.8827 	 5.3868 	 3.7000
  0.7000 	 1.0000 	 8.5240 	 11.7993 	 2.5626 	 24.3167 	 2.8108 	 38.3244 	 62.3891 	 14.0077 	 3.8000
  0.7000 	 1.1000 	 8.7081 	 11.6734 	 2.3656 	 26.8311 	 2.6812 	 41.0821 	 56.2954 	 14.2510 	 3.8000
  0.7000 	 1.2000 	 8.8615 	 11.5716 	 2.1997 	 29.3830 	 2.5783 	 43.5847 	 50.4392 	 14.2016 	 3.8000
  0.7000 	 1.3000 	 8.9913 	 11.4875 	 2.0578 	 32.0067 	 2.4953 	 45.8581 	 44.7322 	 13.8514 	 3.8000
  0.7000 	 1.4000 	 9.1026 	 11.4168 	 1.9349 	 34.7461 	 2.4274 	 47.9266 	 39.0704 	 13.1805 	 3.8000
  0.7000 	 1.5000 	 9.1990 	 11.3566 	 1.8271 	 37.6652 	 2.3712 	 49.8122 	 33.3145 	 12.1470 	 3.8000
  0.7000 	 1.6000 	 9.2834 	 11.3047 	 1.7317 	 40.8714 	 2.3242 	 51.5346 	 27.2426 	 10.6632 	 3.8000
  0.7000 	 1.7000 	 9.3578 	 11.2595 	 1.6466 	 44.5904 	 2.2845 	 53.1115 	 20.3980 	 8.5211 	 3.8000
  0.7000 	 1.8000 	 9.4240 	 11.2198 	 1.5699 	 49.5880 	 2.2507 	 54.5586 	 11.2051 	 4.9706 	 3.8000
  0.7000 	 1.0000 	 8.4707 	 11.9917 	 2.6193 	 24.1489 	 2.8669 	 37.8710 	 62.5733 	 13.7221 	 3.9000
  0.7000 	 1.1000 	 8.6596 	 11.8597 	 2.4176 	 26.6669 	 2.7331 	 40.6301 	 56.4480 	 13.9632 	 3.9000
  0.7000 	 1.2000 	 8.8171 	 11.7530 	 2.2479 	 29.2225 	 2.6267 	 43.1367 	 50.5536 	 13.9143 	 3.9000
  0.7000 	 1.3000 	 8.9503 	 11.6649 	 2.1028 	 31.8500 	 2.5408 	 45.4162 	 44.8011 	 13.5662 	 3.9000
  0.7000 	 1.4000 	 9.0645 	 11.5909 	 1.9771 	 34.5940 	 2.4706 	 47.4921 	 39.0846 	 12.8982 	 3.9000
  0.7000 	 1.5000 	 9.1635 	 11.5279 	 1.8670 	 37.5194 	 2.4124 	 49.3860 	 33.2602 	 11.8665 	 3.9000
  0.7000 	 1.6000 	 9.2501 	 11.4737 	 1.7695 	 40.7369 	 2.3637 	 51.1172 	 27.0956 	 10.3803 	 3.9000
  0.7000 	 1.7000 	 9.3265 	 11.4264 	 1.6825 	 44.4829 	 2.3226 	 52.7033 	 20.1010 	 8.2204 	 3.9000
  0.7000 	 1.8000 	 9.3944 	 11.3849 	 1.6043 	 49.6081 	 2.2876 	 54.1596 	 10.4789 	 4.5515 	 3.9000
  0.7000 	 1.0000 	 8.4174 	 12.1836 	 2.6758 	 23.9795 	 2.9229 	 37.4278 	 62.7491 	 13.4484 	 4.0000
  0.7000 	 1.1000 	 8.6112 	 12.0452 	 2.4695 	 26.5006 	 2.7848 	 40.1880 	 56.5930 	 13.6874 	 4.0000
  0.7000 	 1.2000 	 8.7727 	 11.9334 	 2.2959 	 29.0594 	 2.6749 	 42.6983 	 50.6613 	 13.6389 	 4.0000
  0.7000 	 1.3000 	 8.9093 	 11.8413 	 2.1476 	 31.6904 	 2.5862 	 44.9833 	 44.8641 	 13.2929 	 4.0000
  0.7000 	 1.4000 	 9.0264 	 11.7639 	 2.0192 	 34.4386 	 2.5136 	 47.0661 	 39.0936 	 12.6275 	 4.0000
  0.7000 	 1.5000 	 9.1279 	 11.6981 	 1.9066 	 37.3702 	 2.4534 	 48.9678 	 33.2013 	 11.5977 	 4.0000
  0.7000 	 1.6000 	 9.2168 	 11.6414 	 1.8071 	 40.5988 	 2.4031 	 50.7076 	 26.9438 	 10.1087 	 4.0000
  0.7000 	 1.7000 	 9.2951 	 11.5920 	 1.7183 	 44.3723 	 2.3605 	 52.3024 	 19.7960 	 7.9301 	 4.0000
  0.7000 	 1.8000 	 9.3648 	 11.5487 	 1.6385 	 49.6421 	 2.3243 	 53.7676 	 9.6947 	 4.1255 	 4.0000
  0.7000 	 1.0000 	 8.3641 	 12.3749 	 2.7322 	 23.8087 	 2.9789 	 36.9946 	 62.9170 	 13.1858 	 4.1000
  0.7000 	 1.1000 	 8.5628 	 12.2300 	 2.5213 	 26.3326 	 2.8364 	 39.7553 	 56.7309 	 13.4227 	 4.1000
  0.7000 	 1.2000 	 8.7283 	 12.1131 	 2.3439 	 28.8942 	 2.7231 	 42.2688 	 50.7627 	 13.3746 	 4.1000
  0.7000 	 1.3000 	 8.8683 	 12.0167 	 2.1923 	 31.5283 	 2.6315 	 44.5590 	 44.9218 	 13.0307 	 4.1000
  0.7000 	 1.4000 	 8.9884 	 11.9359 	 2.0611 	 34.2804 	 2.5565 	 46.6483 	 39.0980 	 12.3679 	 4.1000
  0.7000 	 1.5000 	 9.0924 	 11.8671 	 1.9462 	 37.2178 	 2.4943 	 48.5575 	 33.1383 	 11.3397 	 4.1000
  0.7000 	 1.6000 	 9.1835 	 11.8080 	 1.8446 	 40.4575 	 2.4423 	 50.3053 	 26.7877 	 9.8478 	 4.1000
  0.7000 	 1.7000 	 9.2638 	 11.7565 	 1.7540 	 44.2591 	 2.3983 	 51.9086 	 19.4835 	 7.6494 	 4.1000
  0.7000 	 1.8000 	 9.3352 	 11.7113 	 1.6726 	 49.6954 	 2.3608 	 53.3824 	 8.8387 	 3.6870 	 4.1000
  0.7000 	 1.0000 	 8.3108 	 12.5658 	 2.7885 	 23.6369 	 3.0347 	 36.5707 	 63.0775 	 12.9338 	 4.2000
  0.7000 	 1.1000 	 8.5143 	 12.4141 	 2.5729 	 26.1631 	 2.8879 	 39.3317 	 56.8623 	 13.1686 	 4.2000
  0.7000 	 1.2000 	 8.6839 	 12.2919 	 2.3916 	 28.7272 	 2.7710 	 41.8480 	 50.8584 	 13.1209 	 4.2000
  0.7000 	 1.3000 	 8.8273 	 12.1912 	 2.2368 	 31.3641 	 2.6766 	 44.1429 	 44.9745 	 12.7789 	 4.2000
  0.7000 	 1.4000 	 8.9503 	 12.1068 	 2.1028 	 34.1198 	 2.5992 	 46.2384 	 39.0981 	 12.1186 	 4.2000
  0.7000 	 1.5000 	 9.0569 	 12.0351 	 1.9855 	 37.0628 	 2.5350 	 48.1546 	 33.0717 	 11.0919 	 4.2000
  0.7000 	 1.6000 	 9.1502 	 11.9734 	 1.8819 	 40.3132 	 2.4813 	 49.9101 	 26.6279 	 9.5969 	 4.2000
  0.7000 	 1.7000 	 9.2324 	 11.9197 	 1.7895 	 44.1436 	 2.4358 	 51.5215 	 19.1638 	 7.3779 	 4.2000
  0.7000 	 1.8000 	 9.3056 	 11.8726 	 1.7064 	 49.7760 	 2.3971 	 53.0036 	 7.8889 	 3.2276 	 4.2000
  0.7000 	 1.0000 	 8.2576 	 12.7562 	 2.8447 	 23.4642 	 3.0904 	 36.1558 	 63.2313 	 12.6916 	 4.3000
  0.7000 	 1.1000 	 8.4659 	 12.5977 	 2.6244 	 25.9924 	 2.9393 	 38.9168 	 56.9876 	 12.9244 	 4.3000
  0.7000 	 1.2000 	 8.6395 	 12.4700 	 2.4393 	 28.5586 	 2.8189 	 41.4356 	 50.9488 	 12.8769 	 4.3000
  0.7000 	 1.3000 	 8.7863 	 12.3649 	 2.2812 	 31.1980 	 2.7216 	 43.7348 	 45.0226 	 12.5368 	 4.3000
  0.7000 	 1.4000 	 8.9123 	 12.2769 	 2.1444 	 33.9570 	 2.6418 	 45.8360 	 39.0945 	 11.8791 	 4.3000
  0.7000 	 1.5000 	 9.0214 	 12.2021 	 2.0248 	 36.9053 	 2.5756 	 47.7590 	 33.0017 	 10.8537 	 4.3000
  0.7000 	 1.6000 	 9.1168 	 12.1378 	 1.9190 	 40.1663 	 2.5201 	 49.5218 	 26.4647 	 9.3555 	 4.3000
  0.7000 	 1.7000 	 9.2011 	 12.0819 	 1.8248 	 44.0261 	 2.4732 	 51.1409 	 18.8370 	 7.1149 	 4.3000
  0.7000 	 1.8000 	 9.2760 	 12.0329 	 1.7401 	 49.8979 	 2.4332 	 52.6310 	 6.8078 	 2.7332 	 4.3000
  0.7000 	 1.0000 	 8.2043 	 12.9464 	 2.9007 	 23.2908 	 3.1461 	 35.7496 	 63.3786 	 12.4587 	 4.4000
  0.7000 	 1.1000 	 8.4174 	 12.7807 	 2.6758 	 25.8208 	 2.9906 	 38.5102 	 57.1072 	 12.6894 	 4.4000
  0.7000 	 1.2000 	 8.5951 	 12.6474 	 2.4868 	 28.3888 	 2.8667 	 41.0311 	 51.0343 	 12.6423 	 4.4000
  0.7000 	 1.3000 	 8.7454 	 12.5378 	 2.3254 	 31.0303 	 2.7664 	 43.3344 	 45.0666 	 12.3040 	 4.4000
  0.7000 	 1.4000 	 8.8742 	 12.4461 	 2.1859 	 33.7923 	 2.6842 	 45.4409 	 39.0874 	 11.6486 	 4.4000
  0.7000 	 1.5000 	 8.9858 	 12.3682 	 2.0638 	 36.7456 	 2.6160 	 47.3702 	 32.9289 	 10.6246 	 4.4000
  0.7000 	 1.6000 	 9.0835 	 12.3013 	 1.9560 	 40.0172 	 2.5588 	 49.1401 	 26.2985 	 9.1230 	 4.4000
  0.7000 	 1.7000 	 9.1697 	 12.2431 	 1.8599 	 43.9069 	 2.5104 	 50.7667 	 18.5034 	 6.8598 	 4.4000
  0.7000 	 1.0000 	 8.1510 	 13.1362 	 2.9567 	 23.1170 	 3.2016 	 35.3516 	 63.5198 	 12.2346 	 4.5000
  0.7000 	 1.1000 	 8.3690 	 12.9632 	 2.7271 	 25.6484 	 3.0418 	 38.1116 	 57.2214 	 12.4632 	 4.5000
  0.7000 	 1.2000 	 8.5506 	 12.8242 	 2.5342 	 28.2179 	 2.9143 	 40.6343 	 51.1152 	 12.4164 	 4.5000
  0.7000 	 1.3000 	 8.7044 	 12.7100 	 2.3696 	 30.8614 	 2.8112 	 42.9412 	 45.1067 	 12.0799 	 4.5000
  0.7000 	 1.4000 	 8.8361 	 12.6145 	 2.2273 	 33.6260 	 2.7265 	 45.0528 	 39.0772 	 11.4268 	 4.5000
  0.7000 	 1.5000 	 8.9503 	 12.5334 	 2.1028 	 36.5841 	 2.6563 	 46.9882 	 32.8535 	 10.4041 	 4.5000
  0.7000 	 1.6000 	 9.0502 	 12.4638 	 1.9929 	 39.8659 	 2.5974 	 48.7648 	 26.1296 	 8.8989 	 4.5000
  0.7000 	 1.7000 	 9.1384 	 12.4033 	 1.8950 	 43.7863 	 2.5475 	 50.3985 	 18.1631 	 6.6122 	 4.5000
  0.8000 	 1.0000 	 9.0036 	 10.0245 	 1.9755 	 23.2039 	 2.2996 	 42.9630 	 56.5960 	 19.7590 	 2.9000
  0.8000 	 1.1000 	 9.1441 	 9.9470 	 1.8187 	 25.5893 	 2.2077 	 45.6820 	 51.3538 	 20.0928 	 2.9000
  0.8000 	 1.2000 	 9.2612 	 9.8837 	 1.6859 	 28.0255 	 2.1351 	 48.1210 	 46.3920 	 20.0955 	 2.9000
  0.8000 	 1.3000 	 9.3602 	 9.8312 	 1.5716 	 30.5442 	 2.0768 	 50.3138 	 41.6412 	 19.7696 	 2.9000
  0.8000 	 1.4000 	 9.4451 	 9.7868 	 1.4718 	 33.1836 	 2.0294 	 52.2904 	 37.0286 	 19.1068 	 2.9000
  0.8000 	 1.5000 	 9.5187 	 9.7488 	 1.3838 	 35.9946 	 1.9903 	 54.0773 	 32.4714 	 18.0827 	 2.9000
  0.8000 	 1.6000 	 9.5831 	 9.7159 	 1.3052 	 39.0518 	 1.9578 	 55.6977 	 27.8632 	 16.6459 	 2.9000
  0.8000 	 1.7000 	 9.6399 	 9.6872 	 1.2346 	 42.4793 	 1.9304 	 57.1716 	 23.0419 	 14.6923 	 2.9000
  0.8000 	 1.8000 	 9.6904 	 9.6618 	 1.1705 	 46.5256 	 1.9071 	 58.5163 	 17.6963 	 11.9907 	 2.9000
  0.8000 	 1.0000 	 8.9503 	 10.2267 	 2.0343 	 23.1461 	 2.3571 	 42.3897 	 56.9409 	 19.2436 	 3.0000
  0.8000 	 1.1000 	 9.0957 	 10.1444 	 1.8731 	 25.5418 	 2.2610 	 45.1161 	 51.6672 	 19.5742 	 3.0000
  0.8000 	 1.2000 	 9.2168 	 10.0774 	 1.7366 	 27.9868 	 2.1851 	 47.5651 	 46.6686 	 19.5783 	 3.0000
  0.8000 	 1.3000 	 9.3192 	 10.0217 	 1.6191 	 30.5122 	 2.1242 	 49.7697 	 41.8761 	 19.2575 	 3.0000
  0.8000 	 1.4000 	 9.4071 	 9.9747 	 1.5168 	 33.1562 	 2.0746 	 51.7593 	 37.2166 	 18.6031 	 3.0000
  0.8000 	 1.5000 	 9.4832 	 9.9345 	 1.4265 	 35.9696 	 2.0337 	 53.5597 	 32.6060 	 17.5901 	 3.0000
  0.8000 	 1.6000 	 9.5498 	 9.8997 	 1.3460 	 39.0273 	 1.9996 	 55.1938 	 27.9349 	 16.1665 	 3.0000
  0.8000 	 1.7000 	 9.6086 	 9.8693 	 1.2737 	 42.4545 	 1.9709 	 56.6812 	 23.0347 	 14.2268 	 3.0000
  0.8000 	 1.8000 	 9.6608 	 9.8425 	 1.2082 	 46.5064 	 1.9465 	 58.0393 	 17.5748 	 11.5329 	 3.0000
  0.8000 	 1.0000 	 8.8970 	 10.4274 	 2.0929 	 23.0767 	 2.4143 	 41.8328 	 57.2652 	 18.7562 	 3.1000
  0.8000 	 1.1000 	 9.0472 	 10.3402 	 1.9271 	 25.4818 	 2.3142 	 44.5655 	 51.9606 	 19.0837 	 3.1000
  0.8000 	 1.2000 	 9.1724 	 10.2693 	 1.7869 	 27.9347 	 2.2350 	 47.0237 	 46.9259 	 19.0890 	 3.1000
  0.8000 	 1.3000 	 9.2783 	 10.2103 	 1.6664 	 30.4665 	 2.1714 	 49.2393 	 42.0921 	 18.7728 	 3.1000
  0.8000 	 1.4000 	 9.3690 	 10.1606 	 1.5613 	 33.1152 	 2.1195 	 51.2410 	 37.3859 	 18.1259 	 3.1000
  0.8000 	 1.5000 	 9.4477 	 10.1181 	 1.4688 	 35.9315 	 2.0768 	 53.0543 	 32.7218 	 17.1228 	 3.1000
  0.8000 	 1.6000 	 9.5165 	 10.0814 	 1.3864 	 38.9907 	 2.0411 	 54.7013 	 27.9871 	 15.7106 	 3.1000
  0.8000 	 1.7000 	 9.5773 	 10.0493 	 1.3125 	 42.4200 	 2.0110 	 56.2018 	 23.0059 	 13.7818 	 3.1000
  0.8000 	 1.8000 	 9.6312 	 10.0210 	 1.2455 	 46.4822 	 1.9855 	 57.5726 	 17.4262 	 11.0904 	 3.1000
  0.8000 	 1.0000 	 8.8437 	 10.6267 	 2.1511 	 22.9969 	 2.4714 	 41.2914 	 57.5708 	 18.2944 	 3.2000
  0.8000 	 1.1000 	 8.9988 	 10.5345 	 1.9809 	 25.4107 	 2.3671 	 44.0296 	 52.2361 	 18.6189 	 3.2000
  0.8000 	 1.2000 	 9.1279 	 10.4594 	 1.8369 	 27.8710 	 2.2846 	 46.4961 	 47.1657 	 18.6251 	 3.2000
  0.8000 	 1.3000 	 9.2373 	 10.3972 	 1.7132 	 30.4088 	 2.2183 	 48.7220 	 42.2912 	 18.3132 	 3.2000
  0.8000 	 1.4000 	 9.3310 	 10.3447 	 1.6056 	 33.0620 	 2.1642 	 50.7351 	 37.5385 	 17.6731 	 3.2000
  0.8000 	 1.5000 	 9.4122 	 10.2999 	 1.5108 	 35.8815 	 2.1195 	 52.5604 	 32.8208 	 16.6789 	 3.2000
  0.8000 	 1.6000 	 9.4832 	 10.2611 	 1.4265 	 38.9432 	 2.0823 	 54.2199 	 28.0219 	 15.2766 	 3.2000
  0.8000 	 1.7000 	 9.5459 	 10.2273 	 1.3508 	 42.3765 	 2.0509 	 55.7327 	 22.9579 	 13.3563 	 3.2000
  0.8000 	 1.8000 	 9.6016 	 10.1975 	 1.2824 	 46.4531 	 2.0242 	 57.1158 	 17.2530 	 10.6627 	 3.2000
  0.8000 	 1.0000 	 8.7904 	 10.8247 	 2.2092 	 22.9082 	 2.5283 	 40.7645 	 57.8593 	 17.8563 	 3.3000
  0.8000 	 1.1000 	 8.9503 	 10.7273 	 2.0343 	 25.3298 	 2.4199 	 43.5075 	 52.4950 	 18.1777 	 3.3000
  0.8000 	 1.2000 	 9.0835 	 10.6481 	 1.8866 	 27.7969 	 2.3340 	 45.9816 	 47.3898 	 18.1847 	 3.3000
  0.8000 	 1.3000 	 9.1963 	 10.5824 	 1.7598 	 30.3403 	 2.2649 	 48.2170 	 42.4750 	 17.8767 	 3.3000
  0.8000 	 1.4000 	 9.2929 	 10.5271 	 1.6495 	 32.9979 	 2.2086 	 50.2408 	 37.6762 	 17.2429 	 3.3000
  0.8000 	 1.5000 	 9.3766 	 10.4799 	 1.5525 	 35.8209 	 2.1620 	 52.0776 	 32.9049 	 16.2567 	 3.3000
  0.8000 	 1.6000 	 9.4499 	 10.4391 	 1.4662 	 38.8859 	 2.1232 	 53.7488 	 28.0412 	 14.8630 	 3.3000
  0.8000 	 1.7000 	 9.5146 	 10.4034 	 1.3888 	 42.3246 	 2.0905 	 55.2736 	 22.8928 	 12.9489 	 3.3000
  0.8000 	 1.8000 	 9.5720 	 10.3721 	 1.3189 	 46.4193 	 2.0626 	 56.6684 	 17.0575 	 10.2491 	 3.3000
  0.8000 	 1.0000 	 8.7372 	 11.0215 	 2.2669 	 22.8116 	 2.5851 	 40.2514 	 58.1321 	 17.4399 	 3.4000
  0.8000 	 1.1000 	 8.9019 	 10.9188 	 2.0876 	 25.2404 	 2.4725 	 42.9986 	 52.7390 	 17.7582 	 3.4000
  0.8000 	 1.2000 	 9.0391 	 10.8353 	 1.9361 	 27.7137 	 2.3832 	 45.4796 	 47.5995 	 17.7659 	 3.4000
  0.8000 	 1.3000 	 9.1553 	 10.7661 	 1.8062 	 30.2623 	 2.3114 	 47.7238 	 42.6450 	 17.4615 	 3.4000
  0.8000 	 1.4000 	 9.2548 	 10.7079 	 1.6932 	 32.9242 	 2.2527 	 49.7577 	 37.8005 	 16.8335 	 3.4000
  0.8000 	 1.5000 	 9.3411 	 10.6582 	 1.5938 	 35.7508 	 2.2043 	 51.6053 	 32.9756 	 15.8545 	 3.4000
  0.8000 	 1.6000 	 9.4166 	 10.6153 	 1.5056 	 38.8195 	 2.1639 	 53.2878 	 28.0469 	 14.4682 	 3.4000
  0.8000 	 1.7000 	 9.4832 	 10.5778 	 1.4265 	 42.2651 	 2.1298 	 54.8239 	 22.8124 	 12.5587 	 3.4000
  0.8000 	 1.8000 	 9.5424 	 10.5448 	 1.3550 	 46.3812 	 2.1008 	 56.2300 	 16.8414 	 9.8488 	 3.4000
  0.8000 	 1.0000 	 8.6839 	 11.2173 	 2.3245 	 22.7080 	 2.6417 	 39.7515 	 58.3905 	 17.0436 	 3.5000
  0.8000 	 1.1000 	 8.8534 	 11.1090 	 2.1406 	 25.1433 	 2.5249 	 42.5021 	 52.9693 	 17.3589 	 3.5000
  0.8000 	 1.2000 	 8.9947 	 11.0211 	 1.9853 	 27.6223 	 2.4322 	 44.9894 	 47.7961 	 17.3671 	 3.5000
  0.8000 	 1.3000 	 9.1143 	 10.9484 	 1.8522 	 30.1758 	 2.3576 	 47.2418 	 42.8024 	 17.0660 	 3.5000
  0.8000 	 1.4000 	 9.2168 	 10.8872 	 1.7366 	 32.8418 	 2.2967 	 49.2852 	 37.9126 	 16.4434 	 3.5000
  0.8000 	 1.5000 	 9.3056 	 10.8349 	 1.6349 	 35.6720 	 2.2464 	 51.1430 	 33.0344 	 15.4710 	 3.5000
  0.8000 	 1.6000 	 9.3833 	 10.7898 	 1.5447 	 38.7450 	 2.2043 	 52.8362 	 28.0403 	 14.0912 	 3.5000
  0.8000 	 1.7000 	 9.4519 	 10.7505 	 1.4638 	 42.1986 	 2.1688 	 54.3832 	 22.7184 	 12.1846 	 3.5000
  0.8000 	 1.8000 	 9.5128 	 10.7159 	 1.3909 	 46.3390 	 2.1386 	 55.8001 	 16.6062 	 9.4611 	 3.5000
  0.8000 	 1.0000 	 8.6306 	 11.4121 	 2.3819 	 22.5983 	 2.6982 	 39.2641 	 58.6356 	 16.6659 	 3.6000
  0.8000 	 1.1000 	 8.8050 	 11.2982 	 2.1934 	 25.0395 	 2.5771 	 42.0176 	 53.1869 	 16.9781 	 3.6000
  0.8000 	 1.2000 	 8.9503 	 11.2058 	 2.0343 	 27.5237 	 2.4811 	 44.5105 	 47.9807 	 16.9868 	 3.6000
  0.8000 	 1.3000 	 9.0733 	 11.1293 	 1.8981 	 30.0817 	 2.4037 	 46.7705 	 42.9485 	 16.6888 	 3.6000
  0.8000 	 1.4000 	 9.1787 	 11.0650 	 1.7797 	 32.7516 	 2.3405 	 48.8228 	 38.0138 	 16.0712 	 3.6000
  0.8000 	 1.5000 	 9.2701 	 11.0102 	 1.6758 	 35.5856 	 2.2882 	 50.6903 	 33.0825 	 15.1048 	 3.6000
  0.8000 	 1.6000 	 9.3500 	 10.9629 	 1.5835 	 38.6631 	 2.2445 	 52.3937 	 28.0227 	 13.7306 	 3.6000
  0.8000 	 1.7000 	 9.4205 	 10.9217 	 1.5009 	 42.1256 	 2.2076 	 53.9511 	 22.6121 	 11.8255 	 3.6000
  0.8000 	 1.8000 	 9.4832 	 10.8854 	 1.4265 	 46.2933 	 2.1762 	 55.3785 	 16.3531 	 9.0852 	 3.6000
  0.8000 	 1.0000 	 8.5773 	 11.6061 	 2.4391 	 22.4832 	 2.7546 	 38.7886 	 58.8684 	 16.3054 	 3.7000
  0.8000 	 1.1000 	 8.7565 	 11.4863 	 2.2460 	 24.9298 	 2.6292 	 41.5444 	 53.3930 	 16.6147 	 3.7000
  0.8000 	 1.2000 	 8.9059 	 11.3892 	 2.0831 	 27.4187 	 2.5298 	 44.0425 	 48.1544 	 16.6238 	 3.7000
  0.8000 	 1.3000 	 9.0323 	 11.3090 	 1.9437 	 29.9808 	 2.4496 	 46.3094 	 43.0842 	 16.3286 	 3.7000
  0.8000 	 1.4000 	 9.1406 	 11.2416 	 1.8226 	 32.6544 	 2.3840 	 48.3701 	 38.1051 	 15.7156 	 3.7000
  0.8000 	 1.5000 	 9.2345 	 11.1841 	 1.7164 	 35.4921 	 2.3298 	 50.2469 	 33.1209 	 14.7548 	 3.7000
  0.8000 	 1.6000 	 9.3167 	 11.1345 	 1.6221 	 38.5745 	 2.2844 	 51.9600 	 27.9953 	 13.3855 	 3.7000
  0.8000 	 1.7000 	 9.3892 	 11.0913 	 1.5378 	 42.0466 	 2.2462 	 53.5273 	 22.4947 	 11.4807 	 3.7000
  0.8000 	 1.8000 	 9.4536 	 11.0533 	 1.4618 	 46.2443 	 2.2136 	 54.9648 	 16.0832 	 8.7205 	 3.7000
  0.8000 	 1.0000 	 8.5240 	 11.7993 	 2.4961 	 22.3634 	 2.8108 	 38.3244 	 59.0900 	 15.9610 	 3.8000
  0.8000 	 1.1000 	 8.7081 	 11.6734 	 2.2984 	 24.8148 	 2.6812 	 41.0821 	 53.5883 	 16.2673 	 3.8000
  0.8000 	 1.2000 	 8.8615 	 11.5716 	 2.1317 	 27.3080 	 2.5783 	 43.5847 	 48.3180 	 16.2767 	 3.8000
  0.8000 	 1.3000 	 8.9913 	 11.4875 	 1.9891 	 29.8739 	 2.4953 	 45.8581 	 43.2104 	 15.9842 	 3.8000
  0.8000 	 1.4000 	 9.1026 	 11.4168 	 1.8653 	 32.5510 	 2.4274 	 47.9266 	 38.1874 	 15.3756 	 3.8000
  0.8000 	 1.5000 	 9.1990 	 11.3566 	 1.7567 	 35.3923 	 2.3712 	 49.8122 	 33.1506 	 14.4199 	 3.8000
  0.8000 	 1.6000 	 9.2834 	 11.3047 	 1.6605 	 38.4797 	 2.3242 	 51.5346 	 27.9591 	 13.0549 	 3.8000
  0.8000 	 1.7000 	 9.3578 	 11.2595 	 1.5744 	 41.9622 	 2.2845 	 53.1115 	 22.3673 	 11.1493 	 3.8000
  0.8000 	 1.8000 	 9.4240 	 11.2198 	 1.4968 	 46.1924 	 2.2507 	 54.5586 	 15.7973 	 8.3662 	 3.8000
  0.8000 	 1.0000 	 8.4707 	 11.9917 	 2.5529 	 22.2394 	 2.8669 	 37.8710 	 59.3010 	 15.6316 	 3.9000
  0.8000 	 1.1000 	 8.6596 	 11.8597 	 2.3506 	 24.6951 	 2.7331 	 40.6301 	 53.7738 	 15.9350 	 3.9000
  0.8000 	 1.2000 	 8.8171 	 11.7530 	 2.1802 	 27.1922 	 2.6267 	 43.1367 	 48.4724 	 15.9445 	 3.9000
  0.8000 	 1.3000 	 8.9503 	 11.6649 	 2.0343 	 29.7617 	 2.5408 	 45.4162 	 43.3280 	 15.6546 	 3.9000
  0.8000 	 1.4000 	 9.0645 	 11.5909 	 1.9079 	 32.4420 	 2.4706 	 47.4921 	 38.2615 	 15.0501 	 3.9000
  0.8000 	 1.5000 	 9.1635 	 11.5279 	 1.7969 	 35.2868 	 2.4124 	 49.3860 	 33.1725 	 14.0992 	 3.9000
  0.8000 	 1.6000 	 9.2501 	 11.4737 	 1.6986 	 38.3794 	 2.3637 	 51.1172 	 27.9150 	 12.7378 	 3.9000
  0.8000 	 1.7000 	 9.3265 	 11.4264 	 1.6108 	 41.8728 	 2.3226 	 52.7033 	 22.2308 	 10.8304 	 3.9000
  0.8000 	 1.8000 	 9.3944 	 11.3849 	 1.5317 	 46.1381 	 2.2876 	 54.1596 	 15.4960 	 8.0215 	 3.9000
  0.8000 	 1.0000 	 8.4174 	 12.1836 	 2.6096 	 22.1117 	 2.9229 	 37.4278 	 59.5022 	 15.3161 	 4.0000
  0.8000 	 1.1000 	 8.6112 	 12.0452 	 2.4027 	 24.5714 	 2.7848 	 40.1880 	 53.9501 	 15.6166 	 4.0000
  0.8000 	 1.2000 	 8.7727 	 11.9334 	 2.2284 	 27.0720 	 2.6749 	 42.6983 	 48.6182 	 15.6263 	 4.0000
  0.8000 	 1.3000 	 8.9093 	 11.8413 	 2.0794 	 29.6446 	 2.5862 	 44.9833 	 43.4376 	 15.3387 	 4.0000
  0.8000 	 1.4000 	 9.0264 	 11.7639 	 1.9502 	 32.3279 	 2.5136 	 47.0661 	 38.3282 	 14.7382 	 4.0000
  0.8000 	 1.5000 	 9.1279 	 11.6981 	 1.8369 	 35.1762 	 2.4534 	 48.9678 	 33.1873 	 13.7917 	 4.0000
  0.8000 	 1.6000 	 9.2168 	 11.6414 	 1.7366 	 38.2740 	 2.4031 	 50.7076 	 27.8637 	 12.4335 	 4.0000
  0.8000 	 1.7000 	 9.2951 	 11.5920 	 1.6470 	 41.7789 	 2.3605 	 52.3024 	 22.0859 	 10.5235 	 4.0000
  0.8000 	 1.8000 	 9.3648 	 11.5487 	 1.5663 	 46.0818 	 2.3243 	 53.7676 	 15.1797 	 7.6859 	 4.0000
  0.8000 	 1.0000 	 8.3641 	 12.3749 	 2.6662 	 21.9809 	 2.9789 	 36.9946 	 59.6944 	 15.0137 	 4.1000
  0.8000 	 1.1000 	 8.5628 	 12.2300 	 2.4546 	 24.4440 	 2.8364 	 39.7553 	 54.1179 	 15.3113 	 4.1000
  0.8000 	 1.2000 	 8.7283 	 12.1131 	 2.2766 	 26.9477 	 2.7231 	 42.2688 	 48.7561 	 15.3211 	 4.1000
  0.8000 	 1.3000 	 8.8683 	 12.0167 	 2.1243 	 29.5232 	 2.6315 	 44.5590 	 43.5399 	 15.0358 	 4.1000
  0.8000 	 1.4000 	 8.9884 	 11.9359 	 1.9923 	 32.2094 	 2.5565 	 46.6483 	 38.3880 	 14.4390 	 4.1000
  0.8000 	 1.5000 	 9.0924 	 11.8671 	 1.8767 	 35.0609 	 2.4943 	 48.5575 	 33.1956 	 13.4966 	 4.1000
  0.8000 	 1.6000 	 9.1835 	 11.8080 	 1.7743 	 38.1640 	 2.4423 	 50.3053 	 27.8059 	 12.1412 	 4.1000
  0.8000 	 1.7000 	 9.2638 	 11.7565 	 1.6829 	 41.6808 	 2.3983 	 51.9086 	 21.9336 	 10.2278 	 4.1000
  0.8000 	 1.8000 	 9.3352 	 11.7113 	 1.6007 	 46.0238 	 2.3608 	 53.3824 	 14.8487 	 7.3586 	 4.1000
  0.8000 	 1.0000 	 8.3108 	 12.5658 	 2.7226 	 21.8472 	 3.0347 	 36.5707 	 59.8781 	 14.7235 	 4.2000
  0.8000 	 1.1000 	 8.5143 	 12.4141 	 2.5064 	 24.3134 	 2.8879 	 39.3317 	 54.2778 	 15.0183 	 4.2000
  0.8000 	 1.2000 	 8.6839 	 12.2919 	 2.3245 	 26.8199 	 2.7710 	 41.8480 	 48.8868 	 15.0281 	 4.2000
  0.8000 	 1.3000 	 8.8273 	 12.1912 	 2.1690 	 29.3979 	 2.6766 	 44.1429 	 43.6355 	 14.7450 	 4.2000
  0.8000 	 1.4000 	 8.9503 	 12.1068 	 2.0343 	 32.0867 	 2.5992 	 46.2384 	 38.4417 	 14.1517 	 4.2000
  0.8000 	 1.5000 	 9.0569 	 12.0351 	 1.9163 	 34.9414 	 2.5350 	 48.1546 	 33.1981 	 13.2132 	 4.2000
  0.8000 	 1.6000 	 9.1502 	 11.9734 	 1.8119 	 38.0499 	 2.4813 	 49.9101 	 27.7424 	 11.8603 	 4.2000
  0.8000 	 1.7000 	 9.2324 	 11.9197 	 1.7187 	 41.5788 	 2.4358 	 51.5215 	 21.7743 	 9.9426 	 4.2000
  0.8000 	 1.8000 	 9.3056 	 11.8726 	 1.6349 	 45.9647 	 2.3971 	 53.0036 	 14.5033 	 7.0389 	 4.2000
  0.8000 	 1.0000 	 8.2576 	 12.7562 	 2.7789 	 21.7110 	 3.0904 	 36.1558 	 60.0539 	 14.4448 	 4.3000
  0.8000 	 1.1000 	 8.4659 	 12.5977 	 2.5581 	 24.1799 	 2.9393 	 38.9168 	 54.4304 	 14.7369 	 4.3000
  0.8000 	 1.2000 	 8.6395 	 12.4700 	 2.3723 	 26.6889 	 2.8189 	 41.4356 	 49.0107 	 14.7466 	 4.3000
  0.8000 	 1.3000 	 8.7863 	 12.3649 	 2.2136 	 29.2692 	 2.7216 	 43.7348 	 43.7248 	 14.4656 	 4.3000
  0.8000 	 1.4000 	 8.9123 	 12.2769 	 2.0762 	 31.9604 	 2.6418 	 45.8360 	 38.4897 	 13.8756 	 4.3000
  0.8000 	 1.5000 	 9.0214 	 12.2021 	 1.9558 	 34.8181 	 2.5756 	 47.7590 	 33.1953 	 12.9409 	 4.3000
  0.8000 	 1.6000 	 9.1168 	 12.1378 	 1.8494 	 37.9319 	 2.5201 	 49.5218 	 27.6736 	 11.5900 	 4.3000
  0.8000 	 1.7000 	 9.2011 	 12.0819 	 1.7544 	 41.4734 	 2.4732 	 51.1409 	 21.6086 	 9.6675 	 4.3000
  0.8000 	 1.8000 	 9.2760 	 12.0329 	 1.6690 	 45.9048 	 2.4332 	 52.6310 	 14.1433 	 6.7262 	 4.3000
  0.8000 	 1.0000 	 8.2043 	 12.9464 	 2.8351 	 21.5726 	 3.1461 	 35.7496 	 60.2223 	 14.1769 	 4.4000
  0.8000 	 1.1000 	 8.4174 	 12.7807 	 2.6096 	 24.0440 	 2.9906 	 38.5102 	 54.5761 	 14.4662 	 4.4000
  0.8000 	 1.2000 	 8.5951 	 12.6474 	 2.4200 	 26.5552 	 2.8667 	 41.0311 	 49.1282 	 14.4759 	 4.4000
  0.8000 	 1.3000 	 8.7454 	 12.5378 	 2.2581 	 29.1375 	 2.7664 	 43.3344 	 43.8085 	 14.1969 	 4.4000
  0.8000 	 1.4000 	 8.8742 	 12.4461 	 2.1179 	 31.8308 	 2.6842 	 45.4409 	 38.5325 	 13.6101 	 4.4000
  0.8000 	 1.5000 	 8.9858 	 12.3682 	 1.9951 	 34.6914 	 2.6160 	 47.3702 	 33.1877 	 12.6788 	 4.4000
  0.8000 	 1.6000 	 9.0835 	 12.3013 	 1.8866 	 37.8104 	 2.5588 	 49.1401 	 27.6000 	 11.3297 	 4.4000
  0.8000 	 1.7000 	 9.1697 	 12.2431 	 1.7898 	 41.3648 	 2.5104 	 50.7667 	 21.4371 	 9.4019 	 4.4000
  0.8000 	 1.8000 	 9.2464 	 12.1921 	 1.7028 	 45.8446 	 2.4692 	 52.2645 	 13.7687 	 6.4199 	 4.4000
  0.8000 	 1.0000 	 8.1510 	 13.1362 	 2.8912 	 21.4324 	 3.2016 	 35.3516 	 60.3837 	 13.9192 	 4.5000
  0.8000 	 1.1000 	 8.3690 	 12.9632 	 2.6611 	 23.9059 	 3.0418 	 38.1116 	 54.7154 	 14.2057 	 4.5000
  0.8000 	 1.2000 	 8.5506 	 12.8242 	 2.4676 	 26.4189 	 2.9143 	 40.6343 	 49.2400 	 14.2154 	 4.5000
  0.8000 	 1.3000 	 8.7044 	 12.7100 	 2.3024 	 29.0030 	 2.8112 	 42.9412 	 43.8869 	 13.9382 	 4.5000
  0.8000 	 1.4000 	 8.8361 	 12.6145 	 2.1594 	 31.6983 	 2.7265 	 45.0528 	 38.5705 	 13.3546 	 4.5000
  0.8000 	 1.5000 	 8.9503 	 12.5334 	 2.0343 	 34.5616 	 2.6563 	 46.9882 	 33.1757 	 12.4266 	 4.5000
  0.8000 	 1.6000 	 9.0502 	 12.4638 	 1.9238 	 37.6858 	 2.5974 	 48.7648 	 27.5221 	 11.0790 	 4.5000
  0.8000 	 1.7000 	 9.1384 	 12.4033 	 1.8252 	 41.2533 	 2.5475 	 50.3985 	 21.2603 	 9.1452 	 4.5000
  0.8000 	 1.8000 	 9.2168 	 12.3502 	 1.7366 	 45.7845 	 2.5050 	 51.9037 	 13.3790 	 6.1192 	 4.5000
  0.9000 	 1.0000 	 9.0036 	 10.0245 	 1.9010 	 20.7114 	 2.2996 	 42.9630 	 53.1149 	 22.2516 	 2.9000
  0.9000 	 1.1000 	 9.1441 	 9.9470 	 1.7429 	 23.0222 	 2.2077 	 45.6820 	 48.2532 	 22.6599 	 2.9000
  0.9000 	 1.2000 	 9.2612 	 9.8837 	 1.6087 	 25.4024 	 2.1351 	 48.1210 	 43.6572 	 22.7186 	 2.9000
  0.9000 	 1.3000 	 9.3602 	 9.8312 	 1.4929 	 27.8847 	 2.0768 	 50.3138 	 39.2651 	 22.4290 	 2.9000
  0.9000 	 1.4000 	 9.4451 	 9.7868 	 1.3916 	 30.5092 	 2.0294 	 52.2904 	 35.0129 	 21.7812 	 2.9000
  0.9000 	 1.5000 	 9.5187 	 9.7488 	 1.3019 	 33.3292 	 1.9903 	 54.0773 	 30.8287 	 20.7481 	 2.9000
  0.9000 	 1.6000 	 9.5831 	 9.7159 	 1.2217 	 36.4219 	 1.9578 	 55.6977 	 26.6224 	 19.2758 	 2.9000
  0.9000 	 1.7000 	 9.6399 	 9.6872 	 1.1492 	 39.9123 	 1.9304 	 57.1716 	 22.2628 	 17.2593 	 2.9000
  0.9000 	 1.8000 	 9.6904 	 9.6618 	 1.0832 	 44.0378 	 1.9071 	 58.5163 	 17.5128 	 14.4785 	 2.9000
  0.9000 	 1.9000 	 9.7356 	 9.6393 	 1.0227 	 49.4111 	 1.8872 	 59.7468 	 11.7638 	 10.3357 	 2.9000
  0.9000 	 1.0000 	 8.9503 	 10.2267 	 1.9602 	 20.7292 	 2.3571 	 42.3897 	 53.5074 	 21.6606 	 3.0000
  0.9000 	 1.1000 	 9.0957 	 10.1444 	 1.7978 	 23.0516 	 2.2610 	 45.1161 	 48.6225 	 22.0645 	 3.0000
  0.9000 	 1.2000 	 9.2168 	 10.0774 	 1.6600 	 25.4404 	 2.1851 	 47.5651 	 43.9989 	 22.1248 	 3.0000
  0.9000 	 1.3000 	 9.3192 	 10.0217 	 1.5411 	 27.9275 	 2.1242 	 49.7697 	 39.5757 	 21.8422 	 3.0000
  0.9000 	 1.4000 	 9.4071 	 9.9747 	 1.4373 	 30.5522 	 2.0746 	 51.7593 	 35.2892 	 21.2070 	 3.0000
  0.9000 	 1.5000 	 9.4832 	 9.9345 	 1.3455 	 33.3667 	 2.0337 	 53.5597 	 31.0672 	 20.1930 	 3.0000
  0.9000 	 1.6000 	 9.5498 	 9.8997 	 1.2634 	 36.4467 	 1.9996 	 55.1938 	 26.8188 	 18.7471 	 3.0000
  0.9000 	 1.7000 	 9.6086 	 9.8693 	 1.1894 	 39.9146 	 1.9709 	 56.6812 	 22.4104 	 16.7666 	 3.0000
  0.9000 	 1.8000 	 9.6608 	 9.8425 	 1.1221 	 44.0045 	 1.9465 	 58.0393 	 17.5994 	 14.0348 	 3.0000
  0.9000 	 1.9000 	 9.7076 	 9.8187 	 1.0605 	 49.3259 	 1.9256 	 59.2827 	 11.7554 	 9.9569 	 3.0000
  0.9000 	 1.0000 	 8.8970 	 10.4274 	 2.0192 	 20.7305 	 2.4143 	 41.8328 	 53.8761 	 21.1024 	 3.1000
  0.9000 	 1.1000 	 9.0472 	 10.3402 	 1.8522 	 23.0636 	 2.3142 	 44.5655 	 48.9681 	 21.5020 	 3.1000
  0.9000 	 1.2000 	 9.1724 	 10.2693 	 1.7108 	 25.4603 	 2.2350 	 47.0237 	 44.3170 	 21.5634 	 3.1000
  0.9000 	 1.3000 	 9.2783 	 10.2103 	 1.5889 	 27.9522 	 2.1714 	 49.2393 	 39.8626 	 21.2872 	 3.1000
  0.9000 	 1.4000 	 9.3690 	 10.1606 	 1.4826 	 30.5777 	 2.1195 	 51.2410 	 35.5414 	 20.6633 	 3.1000
  0.9000 	 1.5000 	 9.4477 	 10.1181 	 1.3886 	 33.3882 	 2.0768 	 53.0543 	 31.2807 	 19.6661 	 3.1000
  0.9000 	 1.6000 	 9.5165 	 10.0814 	 1.3047 	 36.4580 	 2.0411 	 54.7013 	 26.9886 	 18.2433 	 3.1000
  0.9000 	 1.7000 	 9.5773 	 10.0493 	 1.2291 	 39.9082 	 2.0110 	 56.2018 	 22.5288 	 16.2936 	 3.1000
  0.9000 	 1.8000 	 9.6312 	 10.0210 	 1.1604 	 43.9708 	 1.9855 	 57.5726 	 17.6515 	 13.6018 	 3.1000
  0.9000 	 1.9000 	 9.6795 	 9.9959 	 1.0976 	 49.2588 	 1.9637 	 58.8285 	 11.6981 	 9.5698 	 3.1000
  0.9000 	 1.0000 	 8.8437 	 10.6267 	 2.0778 	 20.7173 	 2.4714 	 41.2914 	 54.2231 	 20.5741 	 3.2000
  0.9000 	 1.1000 	 8.9988 	 10.5345 	 1.9064 	 23.0601 	 2.3671 	 44.0296 	 49.2923 	 20.9695 	 3.2000
  0.9000 	 1.2000 	 9.1279 	 10.4594 	 1.7613 	 25.4643 	 2.2846 	 46.4961 	 44.6139 	 21.0318 	 3.2000
  0.9000 	 1.3000 	 9.2373 	 10.3972 	 1.6364 	 27.9608 	 2.2183 	 48.7220 	 40.1283 	 20.7612 	 3.2000
  0.9000 	 1.4000 	 9.3310 	 10.3447 	 1.5274 	 30.5875 	 2.1642 	 50.7351 	 35.7720 	 20.1476 	 3.2000
  0.9000 	 1.5000 	 9.4122 	 10.2999 	 1.4313 	 33.3951 	 2.1195 	 52.5604 	 31.4720 	 19.1654 	 3.2000
  0.9000 	 1.6000 	 9.4832 	 10.2611 	 1.3455 	 36.4570 	 2.0823 	 54.2199 	 27.1350 	 17.7629 	 3.2000
  0.9000 	 1.7000 	 9.5459 	 10.2273 	 1.2683 	 39.8931 	 2.0509 	 55.7327 	 22.6215 	 15.8396 	 3.2000
  0.9000 	 1.8000 	 9.6016 	 10.1975 	 1.1983 	 43.9354 	 2.0242 	 57.1158 	 17.6731 	 13.1804 	 3.2000
  0.9000 	 1.9000 	 9.6515 	 10.1710 	 1.1343 	 49.2057 	 2.0014 	 58.3837 	 11.5967 	 9.1780 	 3.2000
  0.9000 	 1.0000 	 8.7904 	 10.8247 	 2.1361 	 20.6911 	 2.5283 	 40.7645 	 54.5503 	 20.0734 	 3.3000
  0.9000 	 1.1000 	 8.9503 	 10.7273 	 1.9602 	 23.0430 	 2.4199 	 43.5075 	 49.5971 	 20.4645 	 3.3000
  0.9000 	 1.2000 	 9.0835 	 10.6481 	 1.8114 	 25.4541 	 2.3340 	 45.9816 	 44.8916 	 20.5276 	 3.3000
  0.9000 	 1.3000 	 9.1963 	 10.5824 	 1.6835 	 27.9549 	 2.2649 	 48.2170 	 40.3748 	 20.2621 	 3.3000
  0.9000 	 1.4000 	 9.2929 	 10.5271 	 1.5719 	 30.5831 	 2.2086 	 50.2408 	 35.9832 	 19.6577 	 3.3000
  0.9000 	 1.5000 	 9.3766 	 10.4799 	 1.4735 	 33.3887 	 2.1620 	 52.0776 	 31.6434 	 18.6889 	 3.3000
  0.9000 	 1.6000 	 9.4499 	 10.4391 	 1.3859 	 36.4444 	 2.1232 	 53.7488 	 27.2605 	 17.3044 	 3.3000
  0.9000 	 1.7000 	 9.5146 	 10.4034 	 1.3071 	 39.8698 	 2.0905 	 55.2736 	 22.6912 	 15.4038 	 3.3000
  0.9000 	 1.8000 	 9.5720 	 10.3721 	 1.2357 	 43.8975 	 2.0626 	 56.6684 	 17.6676 	 12.7709 	 3.3000
  0.9000 	 1.9000 	 9.6234 	 10.3442 	 1.1704 	 49.1638 	 2.0388 	 57.9478 	 11.4550 	 8.7840 	 3.3000
  0.9000 	 1.0000 	 8.7372 	 11.0215 	 2.1942 	 20.6535 	 2.5851 	 40.2514 	 54.8595 	 19.5979 	 3.4000
  0.9000 	 1.1000 	 8.9019 	 10.9188 	 2.0138 	 23.0137 	 2.4725 	 42.9986 	 49.8841 	 19.9849 	 3.4000
  0.9000 	 1.2000 	 9.0391 	 10.8353 	 1.8613 	 25.4311 	 2.3832 	 45.4796 	 45.1517 	 20.0485 	 3.4000
  0.9000 	 1.3000 	 9.1553 	 10.7661 	 1.7302 	 27.9362 	 2.3114 	 47.7238 	 40.6039 	 19.7876 	 3.4000
  0.9000 	 1.4000 	 9.2548 	 10.7079 	 1.6161 	 30.5661 	 2.2527 	 49.7577 	 36.1771 	 19.1916 	 3.4000
  0.9000 	 1.5000 	 9.3411 	 10.6582 	 1.5155 	 33.3703 	 2.2043 	 51.6053 	 31.7971 	 18.2350 	 3.4000
  0.9000 	 1.6000 	 9.4166 	 10.6153 	 1.4259 	 36.4213 	 2.1639 	 53.2878 	 27.3673 	 16.8664 	 3.4000
  0.9000 	 1.7000 	 9.4832 	 10.5778 	 1.3455 	 39.8385 	 2.1298 	 54.8239 	 22.7406 	 14.9853 	 3.4000
  0.9000 	 1.8000 	 9.5424 	 10.5448 	 1.2726 	 43.8567 	 2.1008 	 56.2300 	 17.6379 	 12.3733 	 3.4000
  0.9000 	 1.9000 	 9.5954 	 10.5156 	 1.2062 	 49.1310 	 2.0759 	 57.5205 	 11.2760 	 8.3894 	 3.4000
  0.9000 	 1.0000 	 8.6839 	 11.2173 	 2.2520 	 20.6058 	 2.6417 	 39.7515 	 55.1522 	 19.1458 	 3.5000
  0.9000 	 1.1000 	 8.8534 	 11.1090 	 2.0671 	 22.9735 	 2.5249 	 42.5021 	 50.1549 	 19.5287 	 3.5000
  0.9000 	 1.2000 	 8.9947 	 11.0211 	 1.9109 	 25.3968 	 2.4322 	 44.9894 	 45.3960 	 19.5926 	 3.5000
  0.9000 	 1.3000 	 9.1143 	 10.9484 	 1.7767 	 27.9059 	 2.3576 	 47.2418 	 40.8173 	 19.3359 	 3.5000
  0.9000 	 1.4000 	 9.2168 	 10.8872 	 1.6600 	 30.5375 	 2.2967 	 49.2852 	 36.3552 	 18.7476 	 3.5000
  0.9000 	 1.5000 	 9.3056 	 10.8349 	 1.5571 	 33.3409 	 2.2464 	 51.1430 	 31.9348 	 17.8021 	 3.5000
  0.9000 	 1.6000 	 9.3833 	 10.7898 	 1.4656 	 36.3885 	 2.2043 	 52.8362 	 27.4576 	 16.4477 	 3.5000
  0.9000 	 1.7000 	 9.4519 	 10.7505 	 1.3835 	 39.7998 	 2.1688 	 54.3832 	 22.7719 	 14.5834 	 3.5000
  0.9000 	 1.8000 	 9.5128 	 10.7159 	 1.3092 	 43.8125 	 2.1386 	 55.8001 	 17.5863 	 11.9877 	 3.5000
  0.9000 	 1.9000 	 9.5674 	 10.6852 	 1.2415 	 49.1062 	 2.1127 	 57.1013 	 11.0619 	 7.9952 	 3.5000
  0.9000 	 1.0000 	 8.6306 	 11.4121 	 2.3097 	 20.5489 	 2.6982 	 39.2641 	 55.4296 	 18.7152 	 3.6000
  0.9000 	 1.1000 	 8.8050 	 11.2982 	 2.1202 	 22.9235 	 2.5771 	 42.0176 	 50.4108 	 19.0941 	 3.6000
  0.9000 	 1.2000 	 8.9503 	 11.2058 	 1.9602 	 25.3523 	 2.4811 	 44.5105 	 45.6257 	 19.1582 	 3.6000
  0.9000 	 1.3000 	 9.0733 	 11.1293 	 1.8230 	 27.8652 	 2.4037 	 46.7705 	 41.0164 	 18.9053 	 3.6000
  0.9000 	 1.4000 	 9.1787 	 11.0650 	 1.7035 	 30.4986 	 2.3405 	 48.8228 	 36.5191 	 18.3242 	 3.6000
  0.9000 	 1.5000 	 9.2701 	 11.0102 	 1.5985 	 33.3017 	 2.2882 	 50.6903 	 32.0582 	 17.3887 	 3.6000
  0.9000 	 1.6000 	 9.3500 	 10.9629 	 1.5050 	 36.3467 	 2.2445 	 52.3937 	 27.5329 	 16.0470 	 3.6000
  0.9000 	 1.7000 	 9.4205 	 10.9217 	 1.4212 	 39.7540 	 2.2076 	 53.9511 	 22.7868 	 14.1971 	 3.6000
  0.9000 	 1.8000 	 9.4832 	 10.8854 	 1.3455 	 43.7648 	 2.1762 	 55.3785 	 17.5152 	 11.6137 	 3.6000
  0.9000 	 1.9000 	 9.5393 	 10.8532 	 1.2765 	 49.0883 	 2.1493 	 56.6900 	 10.8143 	 7.6017 	 3.6000
  0.9000 	 1.0000 	 8.5773 	 11.6061 	 2.3671 	 20.4840 	 2.7546 	 38.7886 	 55.6929 	 18.3046 	 3.7000
  0.9000 	 1.1000 	 8.7565 	 11.4863 	 2.1731 	 22.8649 	 2.6292 	 41.5444 	 50.6530 	 18.6795 	 3.7000
  0.9000 	 1.2000 	 8.9059 	 11.3892 	 2.0094 	 25.2987 	 2.5298 	 44.0425 	 45.8421 	 18.7437 	 3.7000
  0.9000 	 1.3000 	 9.0323 	 11.3090 	 1.8689 	 27.8150 	 2.4496 	 46.3094 	 41.2024 	 18.4944 	 3.7000
  0.9000 	 1.4000 	 9.1406 	 11.2416 	 1.7469 	 30.4503 	 2.3840 	 48.3701 	 36.6701 	 17.9198 	 3.7000
  0.9000 	 1.5000 	 9.2345 	 11.1841 	 1.6395 	 33.2534 	 2.3298 	 50.2469 	 32.1685 	 16.9935 	 3.7000
  0.9000 	 1.6000 	 9.3167 	 11.1345 	 1.5441 	 36.2968 	 2.2844 	 51.9600 	 27.5947 	 15.6632 	 3.7000
  0.9000 	 1.7000 	 9.3892 	 11.0913 	 1.4587 	 39.7015 	 2.2462 	 53.5273 	 22.7872 	 13.8258 	 3.7000
  0.9000 	 1.8000 	 9.4536 	 11.0533 	 1.3814 	 43.7137 	 2.2136 	 54.9648 	 17.4261 	 11.2511 	 3.7000
  0.9000 	 1.9000 	 9.5113 	 11.0197 	 1.3111 	 49.0771 	 2.1856 	 56.2862 	 10.5340 	 7.2091 	 3.7000
  0.9000 	 1.0000 	 8.5240 	 11.7993 	 2.4243 	 20.4118 	 2.8108 	 38.3244 	 55.9433 	 17.9126 	 3.8000
  0.9000 	 1.1000 	 8.7081 	 11.6734 	 2.2258 	 22.7985 	 2.6812 	 41.0821 	 50.8827 	 18.2836 	 3.8000
  0.9000 	 1.2000 	 8.8615 	 11.5716 	 2.0583 	 25.2369 	 2.5783 	 43.5847 	 46.0463 	 18.3478 	 3.8000
  0.9000 	 1.3000 	 8.9913 	 11.4875 	 1.9147 	 27.7565 	 2.4953 	 45.8581 	 41.3766 	 18.1017 	 3.8000
  0.9000 	 1.4000 	 9.1026 	 11.4168 	 1.7900 	 30.3935 	 2.4274 	 47.9266 	 36.8094 	 17.5331 	 3.8000
  0.9000 	 1.5000 	 9.1990 	 11.3566 	 1.6803 	 33.1969 	 2.3712 	 49.8122 	 32.2671 	 16.6153 	 3.8000
  0.9000 	 1.6000 	 9.2834 	 11.3047 	 1.5830 	 36.2392 	 2.3242 	 51.5346 	 27.6445 	 15.2954 	 3.8000
  0.9000 	 1.7000 	 9.3578 	 11.2595 	 1.4958 	 39.6428 	 2.2845 	 53.1115 	 22.7743 	 13.4687 	 3.8000
  0.9000 	 1.8000 	 9.4240 	 11.2198 	 1.4171 	 43.6590 	 2.2507 	 54.5586 	 17.3208 	 10.8995 	 3.8000
  0.9000 	 1.9000 	 9.4832 	 11.1846 	 1.3455 	 49.0725 	 2.2217 	 55.8896 	 10.2215 	 6.8170 	 3.8000
  0.9000 	 1.0000 	 8.4707 	 11.9917 	 2.4814 	 20.3331 	 2.8669 	 37.8710 	 56.1816 	 17.5379 	 3.9000
  0.9000 	 1.1000 	 8.6596 	 11.8597 	 2.2783 	 22.7251 	 2.7331 	 40.6301 	 51.1007 	 17.9050 	 3.9000
  0.9000 	 1.2000 	 8.8171 	 11.7530 	 2.1070 	 25.1677 	 2.6267 	 43.1367 	 46.2392 	 17.9691 	 3.9000
  0.9000 	 1.3000 	 8.9503 	 11.6649 	 1.9602 	 27.6902 	 2.5408 	 45.4162 	 41.5398 	 17.7260 	 3.9000
  0.9000 	 1.4000 	 9.0645 	 11.5909 	 1.8328 	 30.3290 	 2.4706 	 47.4921 	 36.9380 	 17.1631 	 3.9000
  0.9000 	 1.5000 	 9.1635 	 11.5279 	 1.7209 	 33.1329 	 2.4124 	 49.3860 	 32.3550 	 16.2531 	 3.9000
  0.9000 	 1.6000 	 9.2501 	 11.4737 	 1.6216 	 36.1747 	 2.3637 	 51.1172 	 27.6833 	 14.9425 	 3.9000
  0.9000 	 1.7000 	 9.3265 	 11.4264 	 1.5327 	 39.5783 	 2.3226 	 52.7033 	 22.7495 	 13.1250 	 3.9000
  0.9000 	 1.8000 	 9.3944 	 11.3849 	 1.4524 	 43.6011 	 2.2876 	 54.1596 	 17.2006 	 10.5586 	 3.9000
  0.9000 	 1.9000 	 9.4552 	 11.3481 	 1.3795 	 49.0749 	 2.2575 	 55.4999 	 9.8765 	 6.4249 	 3.9000
  0.9000 	 1.0000 	 8.4174 	 12.1836 	 2.5383 	 20.2486 	 2.9229 	 37.4278 	 56.4088 	 17.1793 	 4.0000
  0.9000 	 1.1000 	 8.6112 	 12.0452 	 2.3306 	 22.6453 	 2.7848 	 40.1880 	 51.3080 	 17.5426 	 4.0000
  0.9000 	 1.2000 	 8.7727 	 11.9334 	 2.1555 	 25.0918 	 2.6749 	 42.6983 	 46.4217 	 17.6065 	 4.0000
  0.9000 	 1.3000 	 8.9093 	 11.8413 	 2.0056 	 27.6171 	 2.5862 	 44.9833 	 41.6929 	 17.3662 	 4.0000
  0.9000 	 1.4000 	 9.0264 	 11.7639 	 1.8755 	 30.2576 	 2.5136 	 47.0661 	 37.0567 	 16.8086 	 4.0000
  0.9000 	 1.5000 	 9.1279 	 11.6981 	 1.7613 	 33.0620 	 2.4534 	 48.9678 	 32.4333 	 15.9058 	 4.0000
  0.9000 	 1.6000 	 9.2168 	 11.6414 	 1.6600 	 36.1039 	 2.4031 	 50.7076 	 27.7121 	 14.6037 	 4.0000
  0.9000 	 1.7000 	 9.2951 	 11.5920 	 1.5693 	 39.5084 	 2.3605 	 52.3024 	 22.7139 	 12.7940 	 4.0000
  0.9000 	 1.8000 	 9.3648 	 11.5487 	 1.4876 	 43.5398 	 2.3243 	 53.7676 	 17.0667 	 10.2278 	 4.0000
  0.9000 	 1.9000 	 9.4271 	 11.5103 	 1.4133 	 49.0850 	 2.2932 	 55.1168 	 9.4981 	 6.0318 	 4.0000
  0.9000 	 1.0000 	 8.3641 	 12.3749 	 2.5950 	 20.1588 	 2.9789 	 36.9946 	 56.6256 	 16.8357 	 4.1000
  0.9000 	 1.1000 	 8.5628 	 12.2300 	 2.3827 	 22.5600 	 2.8364 	 39.7553 	 51.5053 	 17.1953 	 4.1000
  0.9000 	 1.2000 	 8.7283 	 12.1131 	 2.2038 	 25.0099 	 2.7231 	 42.2688 	 46.5947 	 17.2589 	 4.1000
  0.9000 	 1.3000 	 8.8683 	 12.0167 	 2.0508 	 27.5378 	 2.6315 	 44.5590 	 41.8369 	 17.0212 	 4.1000
  0.9000 	 1.4000 	 8.9884 	 11.9359 	 1.9180 	 30.1798 	 2.5565 	 46.6483 	 37.1665 	 16.4686 	 4.1000
  0.9000 	 1.5000 	 9.0924 	 11.8671 	 1.8014 	 32.9849 	 2.4943 	 48.5575 	 32.5026 	 15.5725 	 4.1000
  0.9000 	 1.6000 	 9.1835 	 11.8080 	 1.6981 	 36.0272 	 2.4423 	 50.3053 	 27.7320 	 14.2781 	 4.1000
  0.9000 	 1.7000 	 9.2638 	 11.7565 	 1.6057 	 39.4335 	 2.3983 	 51.9086 	 22.6686 	 12.4751 	 4.1000
  0.9000 	 1.8000 	 9.3352 	 11.7113 	 1.5225 	 43.4756 	 2.3608 	 53.3824 	 16.9200 	 9.9068 	 4.1000
  0.9000 	 1.9000 	 9.3991 	 11.6713 	 1.4469 	 49.1038 	 2.3286 	 54.7402 	 9.0846 	 5.6363 	 4.1000
  0.9000 	 1.0000 	 8.3108 	 12.5658 	 2.6516 	 20.0644 	 3.0347 	 36.5707 	 56.8327 	 16.5062 	 4.2000
  0.9000 	 1.1000 	 8.5143 	 12.4141 	 2.4347 	 22.4695 	 2.8879 	 39.3317 	 51.6932 	 16.8622 	 4.2000
  0.9000 	 1.2000 	 8.6839 	 12.2919 	 2.2520 	 24.9226 	 2.7710 	 41.8480 	 46.7587 	 16.9255 	 4.2000
  0.9000 	 1.3000 	 8.8273 	 12.1912 	 2.0958 	 27.4527 	 2.6766 	 44.1429 	 41.9723 	 16.6902 	 4.2000
  0.9000 	 1.4000 	 8.9503 	 12.1068 	 1.9602 	 30.0962 	 2.5992 	 46.2384 	 37.2681 	 16.1422 	 4.2000
  0.9000 	 1.5000 	 9.0569 	 12.0351 	 1.8414 	 32.9022 	 2.5350 	 48.1546 	 32.5640 	 15.2525 	 4.2000
  0.9000 	 1.6000 	 9.1502 	 11.9734 	 1.7361 	 35.9450 	 2.4813 	 49.9101 	 27.7437 	 13.9651 	 4.2000
  0.9000 	 1.7000 	 9.2324 	 11.9197 	 1.6419 	 39.3539 	 2.4358 	 51.5215 	 22.6143 	 12.1676 	 4.2000
  0.9000 	 1.8000 	 9.3056 	 11.8726 	 1.5571 	 43.4084 	 2.3971 	 53.0036 	 16.7616 	 9.5952 	 4.2000
  0.9000 	 1.9000 	 9.3710 	 11.8310 	 1.4802 	 49.1330 	 2.3638 	 54.3697 	 8.6333 	 5.2367 	 4.2000
  0.9000 	 1.0000 	 8.2576 	 12.7562 	 2.7081 	 19.9658 	 3.0904 	 36.1558 	 57.0308 	 16.1900 	 4.3000
  0.9000 	 1.1000 	 8.4659 	 12.5977 	 2.4865 	 22.3745 	 2.9393 	 38.9168 	 51.8726 	 16.5423 	 4.3000
  0.9000 	 1.2000 	 8.6395 	 12.4700 	 2.3001 	 24.8304 	 2.8189 	 41.4356 	 46.9146 	 16.6052 	 4.3000
  0.9000 	 1.3000 	 8.7863 	 12.3649 	 2.1406 	 27.3626 	 2.7216 	 43.7348 	 42.0998 	 16.3722 	 4.3000
  0.9000 	 1.4000 	 8.9123 	 12.2769 	 2.0024 	 30.0074 	 2.6418 	 45.8360 	 37.3622 	 15.8286 	 4.3000
  0.9000 	 1.5000 	 9.0214 	 12.2021 	 1.8812 	 32.8142 	 2.5756 	 47.7590 	 32.6179 	 14.9448 	 4.3000
  0.9000 	 1.6000 	 9.1168 	 12.1378 	 1.7738 	 35.8579 	 2.5201 	 49.5218 	 27.7480 	 13.6639 	 4.3000
  0.9000 	 1.7000 	 9.2011 	 12.0819 	 1.6779 	 39.2699 	 2.4732 	 51.1409 	 22.5519 	 11.8711 	 4.3000
  0.9000 	 1.8000 	 9.2760 	 12.0329 	 1.5916 	 43.3385 	 2.4332 	 52.6310 	 16.5921 	 9.2925 	 4.3000
  0.9000 	 1.9000 	 9.3430 	 11.9895 	 1.5133 	 49.1746 	 2.3989 	 54.0052 	 8.1401 	 4.8306 	 4.3000
  0.9000 	 1.0000 	 8.2043 	 12.9464 	 2.7644 	 19.8635 	 3.1461 	 35.7496 	 57.2205 	 15.8861 	 4.4000
  0.9000 	 1.1000 	 8.4174 	 12.7807 	 2.5383 	 22.2753 	 2.9906 	 38.5102 	 52.0439 	 16.2349 	 4.4000
  0.9000 	 1.2000 	 8.5951 	 12.6474 	 2.3480 	 24.7337 	 2.8667 	 41.0311 	 47.0627 	 16.2974 	 4.4000
  0.9000 	 1.3000 	 8.7454 	 12.5378 	 2.1853 	 27.2678 	 2.7664 	 43.3344 	 42.2201 	 16.0666 	 4.4000
  0.9000 	 1.4000 	 8.8742 	 12.4461 	 2.0443 	 29.9138 	 2.6842 	 45.4409 	 37.4492 	 15.5271 	 4.4000
  0.9000 	 1.5000 	 8.9858 	 12.3682 	 1.9208 	 32.7214 	 2.6160 	 47.3702 	 32.6651 	 14.6489 	 4.4000
  0.9000 	 1.6000 	 9.0835 	 12.3013 	 1.8114 	 35.7663 	 2.5588 	 49.1401 	 27.7454 	 13.3739 	 4.4000
  0.9000 	 1.7000 	 9.1697 	 12.2431 	 1.7138 	 39.1819 	 2.5104 	 50.7667 	 22.4821 	 11.5848 	 4.4000
  0.9000 	 1.8000 	 9.2464 	 12.1921 	 1.6259 	 43.2661 	 2.4692 	 52.2645 	 16.4124 	 8.9983 	 4.4000
  0.9000 	 1.9000 	 9.3149 	 12.1469 	 1.5462 	 49.2319 	 2.4337 	 53.6464 	 7.5989 	 4.4145 	 4.4000
  0.9000 	 1.0000 	 8.1510 	 13.1362 	 2.8206 	 19.7577 	 3.2016 	 35.3516 	 57.4023 	 15.5939 	 4.5000
  0.9000 	 1.1000 	 8.3690 	 12.9632 	 2.5898 	 22.1724 	 3.0418 	 38.1116 	 52.2077 	 15.9392 	 4.5000
  0.9000 	 1.2000 	 8.5506 	 12.8242 	 2.3957 	 24.6331 	 2.9143 	 40.6343 	 47.2038 	 16.0012 	 4.5000
  0.9000 	 1.3000 	 8.7044 	 12.7100 	 2.2298 	 27.1688 	 2.8112 	 42.9412 	 42.3336 	 15.7724 	 4.5000
  0.9000 	 1.4000 	 8.8361 	 12.6145 	 2.0861 	 29.8159 	 2.7265 	 45.0528 	 37.5299 	 15.2369 	 4.5000
  0.9000 	 1.5000 	 8.9503 	 12.5334 	 1.9602 	 32.6243 	 2.6563 	 46.9882 	 32.7061 	 14.3639 	 4.5000
  0.9000 	 1.6000 	 9.0502 	 12.4638 	 1.8489 	 35.6704 	 2.5974 	 48.7648 	 27.7367 	 13.0944 	 4.5000
  0.9000 	 1.7000 	 9.1384 	 12.4033 	 1.7494 	 39.0901 	 2.5475 	 50.3985 	 22.4055 	 11.3084 	 4.5000
  0.9000 	 1.8000 	 9.2168 	 12.3502 	 1.6600 	 43.1915 	 2.5050 	 51.9037 	 16.2228 	 8.7122 	 4.5000
  0.9000 	 1.9000 	 9.2869 	 12.3033 	 1.5789 	 49.3093 	 2.4684 	 53.2931 	 7.0008 	 3.9838 	 4.5000
  1.0000 	 1.0000 	 9.0036 	 10.0245 	 1.8214 	 18.1833 	 2.2996 	 42.9630 	 49.7649 	 24.7796 	 2.9000
  1.0000 	 1.1000 	 9.1441 	 9.9470 	 1.6618 	 20.4141 	 2.2077 	 45.6820 	 45.1808 	 25.2679 	 2.9000
  1.0000 	 1.2000 	 9.2612 	 9.8837 	 1.5259 	 22.7400 	 2.1351 	 48.1210 	 40.8482 	 25.3810 	 2.9000
  1.0000 	 1.3000 	 9.3602 	 9.8312 	 1.4083 	 25.1976 	 2.0768 	 50.3138 	 36.7095 	 25.1162 	 2.9000
  1.0000 	 1.4000 	 9.4451 	 9.7868 	 1.3050 	 27.8331 	 2.0294 	 52.2904 	 32.7043 	 24.4573 	 2.9000
  1.0000 	 1.5000 	 9.5187 	 9.7488 	 1.2132 	 30.7094 	 1.9903 	 54.0773 	 28.7648 	 23.3679 	 2.9000
  1.0000 	 1.6000 	 9.5831 	 9.7159 	 1.1308 	 33.9189 	 1.9578 	 55.6977 	 24.8053 	 21.7788 	 2.9000
  1.0000 	 1.7000 	 9.6399 	 9.6872 	 1.0559 	 37.6124 	 1.9304 	 57.1716 	 20.7006 	 19.5592 	 2.9000
  1.0000 	 1.8000 	 9.6904 	 9.6618 	 0.9873 	 42.0788 	 1.9071 	 58.5163 	 16.2228 	 16.4375 	 2.9000
  1.0000 	 1.9000 	 9.7356 	 9.6393 	 0.9240 	 48.0727 	 1.8872 	 59.7468 	 10.7753 	 11.6741 	 2.9000
  1.0000 	 1.0000 	 8.9503 	 10.2267 	 1.8811 	 18.2818 	 2.3571 	 42.3897 	 50.2073 	 24.1080 	 3.0000
  1.0000 	 1.1000 	 9.0957 	 10.1444 	 1.7172 	 20.5258 	 2.2610 	 45.1161 	 45.6081 	 24.5903 	 3.0000
  1.0000 	 1.2000 	 9.2168 	 10.0774 	 1.5778 	 22.8600 	 2.1851 	 47.5651 	 41.2570 	 24.7051 	 3.0000
  1.0000 	 1.3000 	 9.3192 	 10.0217 	 1.4573 	 25.3197 	 2.1242 	 49.7697 	 37.0976 	 24.4501 	 3.0000
  1.0000 	 1.4000 	 9.4071 	 9.9747 	 1.3516 	 27.9491 	 2.0746 	 51.7593 	 33.0703 	 23.8101 	 3.0000
  1.0000 	 1.5000 	 9.4832 	 9.9345 	 1.2579 	 30.8083 	 2.0337 	 53.5597 	 29.1079 	 22.7514 	 3.0000
  1.0000 	 1.6000 	 9.5498 	 9.8997 	 1.1737 	 33.9852 	 1.9996 	 55.1938 	 25.1257 	 21.2086 	 3.0000
  1.0000 	 1.7000 	 9.6086 	 9.8693 	 1.0975 	 37.6223 	 1.9709 	 56.6812 	 20.9996 	 19.0589 	 3.0000
  1.0000 	 1.8000 	 9.6608 	 9.8425 	 1.0277 	 41.9916 	 1.9465 	 58.0393 	 16.5055 	 16.0477 	 3.0000
  1.0000 	 1.9000 	 9.7076 	 9.8187 	 0.9635 	 47.7932 	 1.9256 	 59.2827 	 11.0648 	 11.4895 	 3.0000
  1.0000 	 1.0000 	 8.8970 	 10.4274 	 1.9405 	 18.3584 	 2.4143 	 41.8328 	 50.6224 	 23.4744 	 3.1000
  1.0000 	 1.1000 	 9.0472 	 10.3402 	 1.7722 	 20.6146 	 2.3142 	 44.5655 	 46.0077 	 23.9509 	 3.1000
  1.0000 	 1.2000 	 9.1724 	 10.2693 	 1.6293 	 22.9568 	 2.2350 	 47.0237 	 41.6376 	 24.0670 	 3.1000
  1.0000 	 1.3000 	 9.2783 	 10.2103 	 1.5058 	 25.4188 	 2.1714 	 49.2393 	 37.4565 	 23.8205 	 3.1000
  1.0000 	 1.4000 	 9.3690 	 10.1606 	 1.3977 	 28.0436 	 2.1195 	 51.2410 	 33.4058 	 23.1974 	 3.1000
  1.0000 	 1.5000 	 9.4477 	 10.1181 	 1.3019 	 30.8888 	 2.0768 	 53.0543 	 29.4187 	 22.1654 	 3.1000
  1.0000 	 1.6000 	 9.5165 	 10.0814 	 1.2161 	 34.0385 	 2.0411 	 54.7013 	 25.4109 	 20.6628 	 3.1000
  1.0000 	 1.7000 	 9.5773 	 10.0493 	 1.1384 	 37.6290 	 2.0110 	 56.2018 	 21.2589 	 18.5728 	 3.1000
  1.0000 	 1.8000 	 9.6312 	 10.0210 	 1.0675 	 41.9189 	 1.9855 	 57.5726 	 16.7402 	 15.6537 	 3.1000
  1.0000 	 1.9000 	 9.6795 	 9.9959 	 1.0023 	 47.5695 	 1.9637 	 58.8285 	 11.2851 	 11.2590 	 3.1000
  1.0000 	 1.0000 	 8.8437 	 10.6267 	 1.9995 	 18.4157 	 2.4714 	 41.2914 	 51.0125 	 22.8757 	 3.2000
  1.0000 	 1.1000 	 8.9988 	 10.5345 	 1.8268 	 20.6832 	 2.3671 	 44.0296 	 46.3821 	 23.3464 	 3.2000
  1.0000 	 1.2000 	 9.1279 	 10.4594 	 1.6803 	 23.0328 	 2.2846 	 46.4961 	 41.9926 	 23.4634 	 3.2000
  1.0000 	 1.3000 	 9.2373 	 10.3972 	 1.5539 	 25.4975 	 2.2183 	 48.7220 	 37.7893 	 23.2245 	 3.2000
  1.0000 	 1.4000 	 9.3310 	 10.3447 	 1.4433 	 28.1188 	 2.1642 	 50.7351 	 33.7142 	 22.6163 	 3.2000
  1.0000 	 1.5000 	 9.4122 	 10.2999 	 1.3455 	 30.9524 	 2.1195 	 52.5604 	 29.7008 	 21.6080 	 3.2000
  1.0000 	 1.6000 	 9.4832 	 10.2611 	 1.2579 	 34.0794 	 2.0823 	 54.2199 	 25.6651 	 20.1405 	 3.2000
  1.0000 	 1.7000 	 9.5459 	 10.2273 	 1.1787 	 37.6311 	 2.0509 	 55.7327 	 21.4835 	 18.1017 	 3.2000
  1.0000 	 1.8000 	 9.6016 	 10.1975 	 1.1066 	 41.8558 	 2.0242 	 57.1158 	 16.9332 	 15.2600 	 3.2000
  1.0000 	 1.9000 	 9.6515 	 10.1710 	 1.0404 	 47.3871 	 2.0014 	 58.3837 	 11.4464 	 10.9966 	 3.2000
  1.0000 	 1.0000 	 8.7904 	 10.8247 	 2.0582 	 18.4558 	 2.5283 	 40.7645 	 51.3801 	 22.3087 	 3.3000
  1.0000 	 1.1000 	 8.9503 	 10.7273 	 1.8811 	 20.7337 	 2.4199 	 43.5075 	 46.7338 	 22.7738 	 3.3000
  1.0000 	 1.2000 	 9.0835 	 10.6481 	 1.7310 	 23.0902 	 2.3340 	 45.9816 	 42.3246 	 22.8914 	 3.3000
  1.0000 	 1.3000 	 9.1963 	 10.5824 	 1.6016 	 25.5577 	 2.2649 	 48.2170 	 38.0986 	 22.6593 	 3.3000
  1.0000 	 1.4000 	 9.2929 	 10.5271 	 1.4885 	 28.1764 	 2.2086 	 50.2408 	 33.9983 	 22.0644 	 3.3000
  1.0000 	 1.5000 	 9.3766 	 10.4799 	 1.3885 	 31.0004 	 2.1620 	 52.0776 	 29.9575 	 21.0772 	 3.3000
  1.0000 	 1.6000 	 9.4499 	 10.4391 	 1.2992 	 34.1084 	 2.1232 	 53.7488 	 25.8918 	 19.6405 	 3.3000
  1.0000 	 1.7000 	 9.5146 	 10.4034 	 1.2185 	 37.6275 	 2.0905 	 55.2736 	 21.6774 	 17.6461 	 3.3000
  1.0000 	 1.8000 	 9.5720 	 10.3721 	 1.1451 	 41.7987 	 2.0626 	 56.6684 	 17.0897 	 14.8697 	 3.3000
  1.0000 	 1.9000 	 9.6234 	 10.3442 	 1.0778 	 47.2358 	 2.0388 	 57.9478 	 11.5569 	 10.7120 	 3.3000
  1.0000 	 1.0000 	 8.7372 	 11.0215 	 2.1167 	 18.4804 	 2.5851 	 40.2514 	 51.7271 	 21.7710 	 3.4000
  1.0000 	 1.1000 	 8.9019 	 10.9188 	 1.9351 	 20.7680 	 2.4725 	 42.9986 	 47.0648 	 22.2306 	 3.4000
  1.0000 	 1.2000 	 9.0391 	 10.8353 	 1.7813 	 23.1311 	 2.3832 	 45.4796 	 42.6357 	 22.3485 	 3.4000
  1.0000 	 1.3000 	 9.1553 	 10.7661 	 1.6489 	 25.6013 	 2.3114 	 47.7238 	 38.3867 	 22.1224 	 3.4000
  1.0000 	 1.4000 	 9.2548 	 10.7079 	 1.5333 	 28.2181 	 2.2527 	 49.7577 	 34.2606 	 21.5396 	 3.4000
  1.0000 	 1.5000 	 9.3411 	 10.6582 	 1.4312 	 31.0342 	 2.2043 	 51.6053 	 30.1913 	 20.5711 	 3.4000
  1.0000 	 1.6000 	 9.4166 	 10.6153 	 1.3400 	 34.1261 	 2.1639 	 53.2878 	 26.0942 	 19.1617 	 3.4000
  1.0000 	 1.7000 	 9.4832 	 10.5778 	 1.2579 	 37.6179 	 2.1298 	 54.8239 	 21.8441 	 17.2059 	 3.4000
  1.0000 	 1.8000 	 9.5424 	 10.5448 	 1.1832 	 41.7448 	 2.1008 	 56.2300 	 17.2141 	 14.4851 	 3.4000
  1.0000 	 1.9000 	 9.5954 	 10.5156 	 1.1148 	 47.1082 	 2.0759 	 57.5205 	 11.6229 	 10.4123 	 3.4000
  1.0000 	 1.0000 	 8.6839 	 11.2173 	 2.1748 	 18.4914 	 2.6417 	 39.7515 	 52.0551 	 21.2602 	 3.5000
  1.0000 	 1.1000 	 8.8534 	 11.1090 	 1.9888 	 20.7878 	 2.5249 	 42.5021 	 47.3769 	 21.7143 	 3.5000
  1.0000 	 1.2000 	 8.9947 	 11.0211 	 1.8314 	 23.1570 	 2.4322 	 44.9894 	 42.9279 	 21.8324 	 3.5000
  1.0000 	 1.3000 	 9.1143 	 10.9484 	 1.6959 	 25.6301 	 2.3576 	 47.2418 	 38.6556 	 21.6117 	 3.5000
  1.0000 	 1.4000 	 9.2168 	 10.8872 	 1.5778 	 28.2455 	 2.2967 	 49.2852 	 34.5032 	 21.0397 	 3.5000
  1.0000 	 1.5000 	 9.3056 	 10.8349 	 1.4735 	 31.0548 	 2.2464 	 51.1430 	 30.4046 	 20.0882 	 3.5000
  1.0000 	 1.6000 	 9.3833 	 10.7898 	 1.3805 	 34.1332 	 2.2043 	 52.8362 	 26.2747 	 18.7030 	 3.5000
  1.0000 	 1.7000 	 9.4519 	 10.7505 	 1.2968 	 37.6021 	 2.1688 	 54.3832 	 21.9868 	 16.7811 	 3.5000
  1.0000 	 1.8000 	 9.5128 	 10.7159 	 1.2207 	 41.6925 	 2.1386 	 55.8001 	 17.3102 	 14.1076 	 3.5000
  1.0000 	 1.9000 	 9.5674 	 10.6852 	 1.1512 	 46.9990 	 2.1127 	 57.1013 	 11.6496 	 10.1024 	 3.5000
  1.0000 	 1.0000 	 8.6306 	 11.4121 	 2.2328 	 18.4900 	 2.6982 	 39.2641 	 52.3658 	 20.7742 	 3.6000
  1.0000 	 1.1000 	 8.8050 	 11.2982 	 2.0423 	 20.7946 	 2.5771 	 42.0176 	 47.6717 	 21.2231 	 3.6000
  1.0000 	 1.2000 	 8.9503 	 11.2058 	 1.8811 	 23.1695 	 2.4811 	 44.5105 	 43.2027 	 21.3411 	 3.6000
  1.0000 	 1.3000 	 9.0733 	 11.1293 	 1.7426 	 25.6453 	 2.4037 	 46.7705 	 38.9070 	 21.1252 	 3.6000
  1.0000 	 1.4000 	 9.1787 	 11.0650 	 1.6219 	 28.2597 	 2.3405 	 48.8228 	 34.7281 	 20.5630 	 3.6000
  1.0000 	 1.5000 	 9.2701 	 11.0102 	 1.5155 	 31.0635 	 2.2882 	 50.6903 	 30.5995 	 19.6268 	 3.6000
  1.0000 	 1.6000 	 9.3500 	 10.9629 	 1.4206 	 34.1304 	 2.2445 	 52.3937 	 26.4356 	 18.2633 	 3.6000
  1.0000 	 1.7000 	 9.4205 	 10.9217 	 1.3353 	 37.5800 	 2.2076 	 53.9511 	 22.1079 	 16.3712 	 3.6000
  1.0000 	 1.8000 	 9.4832 	 10.8854 	 1.2579 	 41.6404 	 2.1762 	 55.3785 	 17.3808 	 13.7381 	 3.6000
  1.0000 	 1.9000 	 9.5393 	 10.8532 	 1.1871 	 46.9039 	 2.1493 	 56.6900 	 11.6410 	 9.7861 	 3.6000
  1.0000 	 1.0000 	 8.5773 	 11.6061 	 2.2904 	 18.4775 	 2.7546 	 38.7886 	 52.6605 	 20.3111 	 3.7000
  1.0000 	 1.1000 	 8.7565 	 11.4863 	 2.0955 	 20.7896 	 2.6292 	 41.5444 	 47.9506 	 20.7548 	 3.7000
  1.0000 	 1.2000 	 8.9059 	 11.3892 	 1.9306 	 23.1698 	 2.5298 	 44.0425 	 43.4617 	 20.8726 	 3.7000
  1.0000 	 1.3000 	 9.0323 	 11.3090 	 1.7891 	 25.6482 	 2.4496 	 46.3094 	 39.1426 	 20.6612 	 3.7000
  1.0000 	 1.4000 	 9.1406 	 11.2416 	 1.6658 	 28.2621 	 2.3840 	 48.3701 	 34.9367 	 20.1080 	 3.7000
  1.0000 	 1.5000 	 9.2345 	 11.1841 	 1.5571 	 31.0612 	 2.3298 	 50.2469 	 30.7778 	 19.1857 	 3.7000
  1.0000 	 1.6000 	 9.3167 	 11.1345 	 1.4603 	 34.1183 	 2.2844 	 51.9600 	 26.5789 	 17.8417 	 3.7000
  1.0000 	 1.7000 	 9.3892 	 11.0913 	 1.3734 	 37.5516 	 2.2462 	 53.5273 	 22.2098 	 15.9758 	 3.7000
  1.0000 	 1.8000 	 9.4536 	 11.0533 	 1.2946 	 41.5875 	 2.2136 	 54.9648 	 17.4289 	 13.3772 	 3.7000
  1.0000 	 1.9000 	 9.5113 	 11.0197 	 1.2227 	 46.8201 	 2.1856 	 56.2862 	 11.6006 	 9.4660 	 3.7000
  1.0000 	 1.0000 	 8.5240 	 11.7993 	 2.3479 	 18.4550 	 2.8108 	 38.3244 	 52.9404 	 19.8694 	 3.8000
  1.0000 	 1.1000 	 8.7081 	 11.6734 	 2.1484 	 20.7741 	 2.6812 	 41.0821 	 48.2149 	 20.3080 	 3.8000
  1.0000 	 1.2000 	 8.8615 	 11.5716 	 1.9799 	 23.1592 	 2.5783 	 43.5847 	 43.7062 	 20.4255 	 3.8000
  1.0000 	 1.3000 	 8.9913 	 11.4875 	 1.8352 	 25.6401 	 2.4953 	 45.8581 	 39.3635 	 20.2180 	 3.8000
  1.0000 	 1.4000 	 9.1026 	 11.4168 	 1.7093 	 28.2536 	 2.4274 	 47.9266 	 35.1307 	 19.6731 	 3.8000
  1.0000 	 1.5000 	 9.1990 	 11.3566 	 1.5984 	 31.0488 	 2.3712 	 49.8122 	 30.9409 	 18.7634 	 3.8000
  1.0000 	 1.6000 	 9.2834 	 11.3047 	 1.4998 	 34.0976 	 2.3242 	 51.5346 	 26.7064 	 17.4370 	 3.8000
  1.0000 	 1.7000 	 9.3578 	 11.2595 	 1.4112 	 37.5171 	 2.2845 	 53.1115 	 22.2943 	 15.5944 	 3.8000
  1.0000 	 1.8000 	 9.4240 	 11.2198 	 1.3310 	 41.5332 	 2.2507 	 54.5586 	 17.4565 	 13.0253 	 3.8000
  1.0000 	 1.9000 	 9.4832 	 11.1846 	 1.2579 	 46.7453 	 2.2217 	 55.8896 	 11.5311 	 9.1442 	 3.8000
  1.0000 	 1.0000 	 8.4707 	 11.9917 	 2.4052 	 18.4235 	 2.8669 	 37.8710 	 53.2067 	 19.4475 	 3.9000
  1.0000 	 1.1000 	 8.6596 	 11.8597 	 2.2012 	 20.7490 	 2.7331 	 40.6301 	 48.4657 	 19.8811 	 3.9000
  1.0000 	 1.2000 	 8.8171 	 11.7530 	 2.0289 	 23.1387 	 2.6267 	 43.1367 	 43.9373 	 19.9981 	 3.9000
  1.0000 	 1.3000 	 8.9503 	 11.6649 	 1.8811 	 25.6219 	 2.5408 	 45.4162 	 39.5712 	 19.7943 	 3.9000
  1.0000 	 1.4000 	 9.0645 	 11.5909 	 1.7526 	 28.2352 	 2.4706 	 47.4921 	 35.3112 	 19.2569 	 3.9000
  1.0000 	 1.5000 	 9.1635 	 11.5279 	 1.6395 	 31.0271 	 2.4124 	 49.3860 	 31.0903 	 18.3589 	 3.9000
  1.0000 	 1.6000 	 9.2501 	 11.4737 	 1.5389 	 34.0688 	 2.3637 	 51.1172 	 26.8195 	 17.0484 	 3.9000
  1.0000 	 1.7000 	 9.3265 	 11.4264 	 1.4487 	 37.4768 	 2.3226 	 52.7033 	 22.3631 	 15.2265 	 3.9000
  1.0000 	 1.8000 	 9.3944 	 11.3849 	 1.3671 	 41.4770 	 2.2876 	 54.1596 	 17.4658 	 12.6826 	 3.9000
  1.0000 	 1.9000 	 9.4552 	 11.3481 	 1.2927 	 46.6778 	 2.2575 	 55.4999 	 11.4348 	 8.8221 	 3.9000
  1.0000 	 1.0000 	 8.4174 	 12.1836 	 2.4623 	 18.3839 	 2.9229 	 37.4278 	 53.4604 	 19.0440 	 4.0000
  1.0000 	 1.1000 	 8.6112 	 12.0452 	 2.2538 	 20.7152 	 2.7848 	 40.1880 	 48.7040 	 19.4728 	 4.0000
  1.0000 	 1.2000 	 8.7727 	 11.9334 	 2.0778 	 23.1091 	 2.6749 	 42.6983 	 44.1560 	 19.5892 	 4.0000
  1.0000 	 1.3000 	 8.9093 	 11.8413 	 1.9268 	 25.5946 	 2.5862 	 44.9833 	 39.7666 	 19.3887 	 4.0000
  1.0000 	 1.4000 	 9.0264 	 11.7639 	 1.7957 	 28.2078 	 2.5136 	 47.0661 	 35.4795 	 18.8583 	 4.0000
  1.0000 	 1.5000 	 9.1279 	 11.6981 	 1.6803 	 30.9969 	 2.4534 	 48.9678 	 31.2272 	 17.9710 	 4.0000
  1.0000 	 1.6000 	 9.2168 	 11.6414 	 1.5778 	 34.0325 	 2.4031 	 50.7076 	 26.9195 	 16.6750 	 4.0000
  1.0000 	 1.7000 	 9.2951 	 11.5920 	 1.4859 	 37.4309 	 2.3605 	 52.3024 	 22.4178 	 14.8715 	 4.0000
  1.0000 	 1.8000 	 9.3648 	 11.5487 	 1.4028 	 41.4187 	 2.3243 	 53.7676 	 17.4584 	 12.3490 	 4.0000
  1.0000 	 1.9000 	 9.4271 	 11.5103 	 1.3272 	 46.6163 	 2.2932 	 55.1168 	 11.3137 	 8.5005 	 4.0000
  1.0000 	 1.0000 	 8.3641 	 12.3749 	 2.5193 	 18.3369 	 2.9789 	 36.9946 	 53.7024 	 18.6577 	 4.1000
  1.0000 	 1.1000 	 8.5628 	 12.2300 	 2.3061 	 20.6736 	 2.8364 	 39.7553 	 48.9308 	 19.0817 	 4.1000
  1.0000 	 1.2000 	 8.7283 	 12.1131 	 2.1264 	 23.0713 	 2.7231 	 42.2688 	 44.3634 	 19.1975 	 4.1000
  1.0000 	 1.3000 	 8.8683 	 12.0167 	 1.9723 	 25.5590 	 2.6315 	 44.5590 	 39.9507 	 19.0000 	 4.1000
  1.0000 	 1.4000 	 8.9884 	 11.9359 	 1.8385 	 28.1721 	 2.5565 	 46.6483 	 35.6365 	 18.4762 	 4.1000
  1.0000 	 1.5000 	 9.0924 	 11.8671 	 1.7209 	 30.9588 	 2.4943 	 48.5575 	 31.3527 	 17.5987 	 4.1000
  1.0000 	 1.6000 	 9.1835 	 11.8080 	 1.6164 	 33.9893 	 2.4423 	 50.3053 	 27.0078 	 16.3160 	 4.1000
  1.0000 	 1.7000 	 9.2638 	 11.7565 	 1.5228 	 37.3796 	 2.3983 	 51.9086 	 22.4597 	 14.5289 	 4.1000
  1.0000 	 1.8000 	 9.3352 	 11.7113 	 1.4383 	 41.3580 	 2.3608 	 53.3824 	 17.4359 	 12.0244 	 4.1000
  1.0000 	 1.9000 	 9.3991 	 11.6713 	 1.3614 	 46.5599 	 2.3286 	 54.7402 	 11.1693 	 8.1803 	 4.1000
  1.0000 	 1.0000 	 8.3108 	 12.5658 	 2.5761 	 18.2832 	 3.0347 	 36.5707 	 53.9334 	 18.2875 	 4.2000
  1.0000 	 1.1000 	 8.5143 	 12.4141 	 2.3584 	 20.6249 	 2.8879 	 39.3317 	 49.1468 	 18.7068 	 4.2000
  1.0000 	 1.2000 	 8.6839 	 12.2919 	 2.1748 	 23.0262 	 2.7710 	 41.8480 	 44.5603 	 18.8219 	 4.2000
  1.0000 	 1.3000 	 8.8273 	 12.1912 	 2.0176 	 25.5157 	 2.6766 	 44.1429 	 40.1245 	 18.6272 	 4.2000
  1.0000 	 1.4000 	 8.9503 	 12.1068 	 1.8811 	 28.1289 	 2.5992 	 46.2384 	 35.7832 	 18.1095 	 4.2000
  1.0000 	 1.5000 	 9.0569 	 12.0351 	 1.7612 	 30.9135 	 2.5350 	 48.1546 	 31.4678 	 17.2411 	 4.2000
  1.0000 	 1.6000 	 9.1502 	 11.9734 	 1.6548 	 33.9396 	 2.4813 	 49.9101 	 27.0852 	 15.9706 	 4.2000
  1.0000 	 1.7000 	 9.2324 	 11.9197 	 1.5595 	 37.3232 	 2.4358 	 51.5215 	 22.4898 	 14.1983 	 4.2000
  1.0000 	 1.8000 	 9.3056 	 11.8726 	 1.4735 	 41.2948 	 2.3971 	 53.0036 	 17.3995 	 11.7088 	 4.2000
  1.0000 	 1.9000 	 9.3710 	 11.8310 	 1.3953 	 46.5079 	 2.3638 	 54.3697 	 11.0028 	 7.8618 	 4.2000
  1.0000 	 1.0000 	 8.2576 	 12.7562 	 2.6327 	 18.2235 	 3.0904 	 36.1558 	 54.1542 	 17.9323 	 4.3000
  1.0000 	 1.1000 	 8.4659 	 12.5977 	 2.4104 	 20.5697 	 2.9393 	 38.9168 	 49.3529 	 18.3471 	 4.3000
  1.0000 	 1.2000 	 8.6395 	 12.4700 	 2.2231 	 22.9742 	 2.8189 	 41.4356 	 44.7474 	 18.4614 	 4.3000
  1.0000 	 1.3000 	 8.7863 	 12.3649 	 2.0627 	 25.4655 	 2.7216 	 43.7348 	 40.2887 	 18.2693 	 4.3000
  1.0000 	 1.4000 	 8.9123 	 12.2769 	 1.9236 	 28.0788 	 2.6418 	 45.8360 	 35.9204 	 17.7572 	 4.3000
  1.0000 	 1.5000 	 9.0214 	 12.2021 	 1.8014 	 30.8616 	 2.5756 	 47.7590 	 31.5733 	 16.8974 	 4.3000
  1.0000 	 1.6000 	 9.1168 	 12.1378 	 1.6930 	 33.8838 	 2.5201 	 49.5218 	 27.1528 	 15.6380 	 4.3000
  1.0000 	 1.7000 	 9.2011 	 12.0819 	 1.5960 	 37.2620 	 2.4732 	 51.1409 	 22.5094 	 13.8789 	 4.3000
  1.0000 	 1.8000 	 9.2760 	 12.0329 	 1.5085 	 41.2291 	 2.4332 	 52.6310 	 17.3505 	 11.4019 	 4.3000
  1.0000 	 1.9000 	 9.3430 	 11.9895 	 1.4290 	 46.4599 	 2.3989 	 54.0052 	 10.8150 	 7.5453 	 4.3000
  1.0000 	 1.0000 	 8.2043 	 12.9464 	 2.6892 	 18.1583 	 3.1461 	 35.7496 	 54.3655 	 17.5913 	 4.4000
  1.0000 	 1.1000 	 8.4174 	 12.7807 	 2.4623 	 20.5086 	 2.9906 	 38.5102 	 49.5497 	 18.0016 	 4.4000
  1.0000 	 1.2000 	 8.5951 	 12.6474 	 2.2712 	 22.9161 	 2.8667 	 41.0311 	 44.9255 	 18.1150 	 4.4000
  1.0000 	 1.3000 	 8.7454 	 12.5378 	 2.1077 	 25.4090 	 2.7664 	 43.3344 	 40.4440 	 17.9254 	 4.4000
  1.0000 	 1.4000 	 8.8742 	 12.4461 	 1.9658 	 28.0224 	 2.6842 	 45.4409 	 36.0489 	 17.4186 	 4.4000
  1.0000 	 1.5000 	 8.9858 	 12.3682 	 1.8414 	 30.8035 	 2.6160 	 47.3702 	 31.6701 	 16.5667 	 4.4000
  1.0000 	 1.6000 	 9.0835 	 12.3013 	 1.7310 	 33.8225 	 2.5588 	 49.1401 	 27.2113 	 15.3176 	 4.4000
  1.0000 	 1.7000 	 9.1697 	 12.2431 	 1.6323 	 37.1963 	 2.5104 	 50.7667 	 22.5193 	 13.5704 	 4.4000
  1.0000 	 1.8000 	 9.2464 	 12.1921 	 1.5433 	 41.1609 	 2.4692 	 52.2645 	 17.2898 	 11.1036 	 4.4000
  1.0000 	 1.9000 	 9.3149 	 12.1469 	 1.4624 	 46.4156 	 2.4337 	 53.6464 	 10.6068 	 7.2307 	 4.4000
  1.0000 	 1.0000 	 8.1510 	 13.1362 	 2.7456 	 18.0880 	 3.2016 	 35.3516 	 54.5680 	 17.2635 	 4.5000
  1.0000 	 1.1000 	 8.3690 	 12.9632 	 2.5141 	 20.4422 	 3.0418 	 38.1116 	 49.7378 	 17.6694 	 4.5000
  1.0000 	 1.2000 	 8.5506 	 12.8242 	 2.3192 	 22.8523 	 2.9143 	 40.6343 	 45.0951 	 17.7820 	 4.5000
  1.0000 	 1.3000 	 8.7044 	 12.7100 	 2.1525 	 25.3466 	 2.8112 	 42.9412 	 40.5911 	 17.5946 	 4.5000
  1.0000 	 1.4000 	 8.8361 	 12.6145 	 2.0079 	 27.9601 	 2.7265 	 45.0528 	 36.1692 	 17.0928 	 4.5000
  1.0000 	 1.5000 	 8.9503 	 12.5334 	 1.8811 	 30.7399 	 2.6563 	 46.9882 	 31.7588 	 16.2483 	 4.5000
  1.0000 	 1.6000 	 9.0502 	 12.4638 	 1.7688 	 33.7561 	 2.5974 	 48.7648 	 27.2617 	 15.0088 	 4.5000
  1.0000 	 1.7000 	 9.1384 	 12.4033 	 1.6683 	 37.1263 	 2.5475 	 50.3985 	 22.5203 	 13.2722 	 4.5000
  1.0000 	 1.8000 	 9.2168 	 12.3502 	 1.5778 	 41.0902 	 2.5050 	 51.9037 	 17.2184 	 10.8135 	 4.5000
  1.0000 	 1.9000 	 9.2869 	 12.3033 	 1.4956 	 46.3750 	 2.4684 	 53.2931 	 10.3786 	 6.9182 	 4.5000
