# d(e,e'p)n Central Kinematics Summary
# Beam Energy (Ei) = 8.800 GeV
# 4-Momentum Transfer (Q2) = 2.90 - 4.50 GeV (step: 0.10) 
# x-Bjorken (xbj) = 1.00 - 2.10 (step: 0.10) 
# Missing Momentum (Pr) = 0.00 - 1.10 GeV (step: 0.10) 
# Hadron Out-of-Plane Angle (phi) = 180 deg 
# thp = thq + thpq, phi = 180 ?  (q-vector scatters at smaller  angles than proton scattering angle)# 
# # 
# Tensor Polarized Deuterium: d(e,e'p) kinematics :
# 
# Header Definitions: 
# Pr   : Central Missing Momentum [GeV/c] 
# xbj  : Bjorken x  
# kf   : e- final momentum [GeV/c] 
# th_e : e- scattering angle [deg] 
# Pf   : final proton momentum [GeV/c] 
# th_p : proton scattering angle [deg] 
# q    : 3-momentum transfer [GeV] 
# th_q : relative angle between q-vector and +z (lab)  [deg] 
# th_nq: relative angle between q-vector and recoil neutron [deg] 
# th_pq: relative angle between q-vector and knocked-out proton [deg] 
# Q2   : 4-Momentum Transfer [GeV^2]  
# 
#! Pr[f,0]/ 	  xbj[f,1]/ 	 kf[f,2]/ 	 th_e[f,3]/ 	 Pf[f,4]/ 	 th_p[f,5]/ 	 q[f,6]/ 	 th_q[f,7]/ 	 th_nq[f,8]/ 	 th_pq[f,9]/ 	 Q2[f,10]/
  0.1000 	 1.0000 	 6.7217 	 14.7528 	 2.8590 	 34.6633 	 2.8669 	 36.6583 	 84.4572 	 1.9951 	 3.9000
  0.1000 	 1.0000 	 6.6684 	 15.0017 	 2.9150 	 34.2383 	 2.9229 	 36.1951 	 84.4848 	 1.9568 	 4.0000
  0.1000 	 1.0000 	 6.6151 	 15.2506 	 2.9710 	 33.8217 	 2.9789 	 35.7417 	 84.5111 	 1.9200 	 4.1000
  0.1000 	 1.0000 	 6.5618 	 15.4995 	 3.0268 	 33.4131 	 3.0347 	 35.2978 	 84.5362 	 1.8847 	 4.2000
  0.1000 	 1.0000 	 6.5086 	 15.7486 	 3.0826 	 33.0122 	 3.0904 	 34.8628 	 84.5603 	 1.8507 	 4.3000
  0.1000 	 1.0000 	 6.4553 	 15.9979 	 3.1382 	 32.6186 	 3.1461 	 34.4365 	 84.5834 	 1.8179 	 4.4000
  0.1000 	 1.0000 	 6.4020 	 16.2475 	 3.1938 	 32.2321 	 3.2016 	 34.0184 	 84.6055 	 1.7863 	 4.5000
  0.2000 	 1.0000 	 6.9882 	 13.5035 	 2.5603 	 34.7190 	 2.5851 	 39.1400 	 80.6790 	 4.4209 	 3.4000
  0.2000 	 1.0000 	 6.9349 	 13.7543 	 2.6170 	 34.2939 	 2.6417 	 38.6197 	 80.7442 	 4.3258 	 3.5000
  0.2000 	 1.0000 	 6.8816 	 14.0046 	 2.6736 	 33.8771 	 2.6982 	 38.1120 	 80.8063 	 4.2349 	 3.6000
  0.2000 	 1.0000 	 6.8283 	 14.2543 	 2.7300 	 33.4684 	 2.7546 	 37.6163 	 80.8653 	 4.1479 	 3.7000
  0.2000 	 1.0000 	 6.7750 	 14.5037 	 2.7863 	 33.0673 	 2.8108 	 37.1319 	 80.9216 	 4.0646 	 3.8000
  0.2000 	 1.0000 	 6.7217 	 14.7528 	 2.8424 	 32.6736 	 2.8669 	 36.6583 	 80.9753 	 3.9848 	 3.9000
  0.2000 	 1.0000 	 6.6684 	 15.0017 	 2.8985 	 32.2870 	 2.9229 	 36.1951 	 81.0266 	 3.9081 	 4.0000
  0.2000 	 1.0000 	 6.6151 	 15.2506 	 2.9545 	 31.9072 	 2.9789 	 35.7417 	 81.0757 	 3.8345 	 4.1000
  0.2000 	 1.1000 	 6.8138 	 15.0254 	 2.7453 	 34.8625 	 2.8364 	 38.5192 	 61.0993 	 3.6567 	 4.1000
  0.2000 	 1.0000 	 6.5618 	 15.4995 	 3.0103 	 31.5340 	 3.0347 	 35.2978 	 81.1227 	 3.7637 	 4.2000
  0.2000 	 1.1000 	 6.7653 	 15.2632 	 2.7965 	 34.4893 	 2.8879 	 38.0763 	 61.0205 	 3.5870 	 4.2000
  0.2000 	 1.0000 	 6.5086 	 15.7486 	 3.0661 	 31.1672 	 3.0904 	 34.8628 	 81.1677 	 3.6956 	 4.3000
  0.2000 	 1.1000 	 6.7169 	 15.5009 	 2.8475 	 34.1222 	 2.9393 	 37.6422 	 60.9432 	 3.5200 	 4.3000
  0.2000 	 1.0000 	 6.4553 	 15.9979 	 3.1218 	 30.8065 	 3.1461 	 34.4365 	 81.2109 	 3.6300 	 4.4000
  0.2000 	 1.1000 	 6.6684 	 15.7385 	 2.8985 	 33.7609 	 2.9906 	 37.2163 	 60.8676 	 3.4555 	 4.4000
  0.2000 	 1.0000 	 6.4020 	 16.2475 	 3.1774 	 30.4516 	 3.2016 	 34.0184 	 81.2523 	 3.5668 	 4.5000
  0.2000 	 1.1000 	 6.6200 	 15.9760 	 2.9494 	 33.4052 	 3.0418 	 36.7985 	 60.7934 	 3.3933 	 4.5000
  0.3000 	 1.0000 	 7.2546 	 12.2349 	 2.2467 	 34.5060 	 2.2996 	 41.9546 	 76.1286 	 7.4487 	 2.9000
  0.3000 	 1.0000 	 7.2013 	 12.4910 	 2.3043 	 34.0953 	 2.3571 	 41.3606 	 76.2557 	 7.2653 	 3.0000
  0.3000 	 1.0000 	 7.1480 	 12.7457 	 2.3617 	 33.6916 	 2.4143 	 40.7829 	 76.3756 	 7.0913 	 3.1000
  0.3000 	 1.0000 	 7.0947 	 12.9993 	 2.4190 	 33.2949 	 2.4714 	 40.2209 	 76.4889 	 6.9260 	 3.2000
  0.3000 	 1.0000 	 7.0414 	 13.2518 	 2.4761 	 32.9048 	 2.5283 	 39.6735 	 76.5962 	 6.7686 	 3.3000
  0.3000 	 1.0000 	 6.9882 	 13.5035 	 2.5330 	 32.5213 	 2.5851 	 39.1400 	 76.6978 	 6.6187 	 3.4000
  0.3000 	 1.0000 	 6.9349 	 13.7543 	 2.5897 	 32.1442 	 2.6417 	 38.6197 	 76.7943 	 6.4756 	 3.5000
  0.3000 	 1.1000 	 7.1044 	 13.5884 	 2.4086 	 34.9541 	 2.5249 	 41.3827 	 64.0177 	 6.4286 	 3.5000
  0.3000 	 1.0000 	 6.8816 	 14.0046 	 2.6463 	 31.7732 	 2.6982 	 38.1120 	 76.8861 	 6.3389 	 3.6000
  0.3000 	 1.1000 	 7.0560 	 13.8296 	 2.4605 	 34.5864 	 2.5771 	 40.8786 	 64.0137 	 6.2922 	 3.6000
  0.3000 	 1.0000 	 6.8283 	 14.2543 	 2.7028 	 31.4082 	 2.7546 	 37.6163 	 76.9734 	 6.2081 	 3.7000
  0.3000 	 1.1000 	 7.0075 	 14.0699 	 2.5123 	 34.2241 	 2.6292 	 40.3859 	 64.0083 	 6.1617 	 3.7000
  0.3000 	 1.0000 	 6.7750 	 14.5037 	 2.7591 	 31.0490 	 2.8108 	 37.1319 	 77.0567 	 6.0829 	 3.8000
  0.3000 	 1.1000 	 6.9591 	 14.3096 	 2.5639 	 33.8672 	 2.6812 	 39.9040 	 64.0017 	 6.0368 	 3.8000
  0.3000 	 1.0000 	 6.7217 	 14.7528 	 2.8154 	 30.6955 	 2.8669 	 36.6583 	 77.1361 	 5.9628 	 3.9000
  0.3000 	 1.1000 	 6.9106 	 14.5486 	 2.6155 	 33.5156 	 2.7331 	 39.4326 	 63.9939 	 5.9171 	 3.9000
  0.3000 	 1.0000 	 6.6684 	 15.0017 	 2.8715 	 30.3474 	 2.9229 	 36.1951 	 77.2120 	 5.8477 	 4.0000
  0.3000 	 1.1000 	 6.8622 	 14.7872 	 2.6669 	 33.1690 	 2.7848 	 38.9712 	 63.9853 	 5.8022 	 4.0000
  0.3000 	 1.0000 	 6.6151 	 15.2506 	 2.9275 	 30.0047 	 2.9789 	 35.7417 	 77.2846 	 5.7371 	 4.1000
  0.3000 	 1.1000 	 6.8138 	 15.0254 	 2.7182 	 32.8274 	 2.8364 	 38.5192 	 63.9758 	 5.6918 	 4.1000
  0.3000 	 1.0000 	 6.5618 	 15.4995 	 2.9834 	 29.6670 	 3.0347 	 35.2978 	 77.3541 	 5.6307 	 4.2000
  0.3000 	 1.1000 	 6.7653 	 15.2632 	 2.7694 	 32.4905 	 2.8879 	 38.0763 	 63.9656 	 5.5858 	 4.2000
  0.3000 	 1.0000 	 6.5086 	 15.7486 	 3.0392 	 29.3344 	 3.0904 	 34.8628 	 77.4207 	 5.5284 	 4.3000
  0.3000 	 1.1000 	 6.7169 	 15.5009 	 2.8205 	 32.1584 	 2.9393 	 37.6422 	 63.9548 	 5.4837 	 4.3000
  0.3000 	 1.0000 	 6.4553 	 15.9979 	 3.0950 	 29.0066 	 3.1461 	 34.4365 	 77.4846 	 5.4299 	 4.4000
  0.3000 	 1.1000 	 6.6684 	 15.7385 	 2.8715 	 31.8308 	 2.9906 	 37.2163 	 63.9434 	 5.3855 	 4.4000
  0.3000 	 1.2000 	 6.8461 	 15.5317 	 2.6840 	 34.8361 	 2.8667 	 39.7526 	 50.0642 	 4.9165 	 4.4000
  0.3000 	 1.0000 	 6.4020 	 16.2475 	 3.1506 	 28.6834 	 3.2016 	 34.0184 	 77.5459 	 5.3350 	 4.5000
  0.3000 	 1.1000 	 6.6200 	 15.9760 	 2.9224 	 31.5077 	 3.0418 	 36.7985 	 63.9315 	 5.2909 	 4.5000
  0.3000 	 1.2000 	 6.8016 	 15.7598 	 2.7310 	 34.5137 	 2.9143 	 39.3373 	 49.9504 	 4.8237 	 4.5000
  0.4000 	 1.0000 	 7.2546 	 12.2349 	 2.2088 	 32.0388 	 2.2996 	 41.9546 	 71.9714 	 9.9158 	 2.9000
  0.4000 	 1.1000 	 7.3951 	 12.1176 	 2.0553 	 34.7217 	 2.2077 	 44.6825 	 62.7212 	 9.9608 	 2.9000
  0.4000 	 1.0000 	 7.2013 	 12.4910 	 2.2666 	 31.6907 	 2.3571 	 41.3606 	 72.1404 	 9.6699 	 3.0000
  0.4000 	 1.1000 	 7.3467 	 12.3663 	 2.1084 	 34.3816 	 2.2610 	 44.0962 	 62.8050 	 9.7146 	 3.0000
  0.4000 	 1.0000 	 7.1480 	 12.7457 	 2.3242 	 31.3463 	 2.4143 	 40.7829 	 72.2997 	 9.4366 	 3.1000
  0.4000 	 1.1000 	 7.2982 	 12.6134 	 2.1614 	 34.0443 	 2.3142 	 43.5255 	 62.8822 	 9.4812 	 3.1000
  0.4000 	 1.0000 	 7.0947 	 12.9993 	 2.3815 	 31.0058 	 2.4714 	 40.2209 	 72.4503 	 9.2151 	 3.2000
  0.4000 	 1.1000 	 7.2498 	 12.8590 	 2.2141 	 33.7102 	 2.3671 	 42.9696 	 62.9534 	 9.2594 	 3.2000
  0.4000 	 1.0000 	 7.0414 	 13.2518 	 2.4387 	 30.6692 	 2.5283 	 39.6735 	 72.5927 	 9.0043 	 3.3000
  0.4000 	 1.1000 	 7.2013 	 13.1033 	 2.2666 	 33.3792 	 2.4199 	 42.4276 	 63.0191 	 9.0483 	 3.3000
  0.4000 	 1.0000 	 6.9882 	 13.5035 	 2.4957 	 30.3365 	 2.5851 	 39.1400 	 72.7277 	 8.8035 	 3.4000
  0.4000 	 1.1000 	 7.1529 	 13.3464 	 2.3189 	 33.0516 	 2.4725 	 41.8988 	 63.0799 	 8.8472 	 3.4000
  0.4000 	 1.0000 	 6.9349 	 13.7543 	 2.5526 	 30.0079 	 2.6417 	 38.6197 	 72.8558 	 8.6119 	 3.5000
  0.4000 	 1.1000 	 7.1044 	 13.5884 	 2.3711 	 32.7273 	 2.5249 	 41.3827 	 63.1363 	 8.6554 	 3.5000
  0.4000 	 1.0000 	 6.8816 	 14.0046 	 2.6093 	 29.6831 	 2.6982 	 38.1120 	 72.9776 	 8.4289 	 3.6000
  0.4000 	 1.1000 	 7.0560 	 13.8296 	 2.4232 	 32.4064 	 2.5771 	 40.8786 	 63.1886 	 8.4721 	 3.6000
  0.4000 	 1.0000 	 6.8283 	 14.2543 	 2.6659 	 29.3623 	 2.7546 	 37.6163 	 73.0936 	 8.2539 	 3.7000
  0.4000 	 1.1000 	 7.0075 	 14.0699 	 2.4750 	 32.0890 	 2.6292 	 40.3859 	 63.2371 	 8.2969 	 3.7000
  0.4000 	 1.2000 	 7.1569 	 13.9216 	 2.3146 	 34.9045 	 2.5298 	 42.8950 	 53.5492 	 7.9905 	 3.7000
  0.4000 	 1.0000 	 6.7750 	 14.5037 	 2.7223 	 29.0454 	 2.8108 	 37.1319 	 73.2040 	 8.0864 	 3.8000
  0.4000 	 1.1000 	 6.9591 	 14.3096 	 2.5268 	 31.7750 	 2.6812 	 39.9040 	 63.2823 	 8.1290 	 3.8000
  0.4000 	 1.2000 	 7.1125 	 14.1536 	 2.3624 	 34.5943 	 2.5783 	 42.4183 	 53.5131 	 7.8239 	 3.8000
  0.4000 	 1.0000 	 6.7217 	 14.7528 	 2.7786 	 28.7324 	 2.8669 	 36.6583 	 73.3094 	 7.9259 	 3.9000
  0.4000 	 1.1000 	 6.9106 	 14.5486 	 2.5784 	 31.4644 	 2.7331 	 39.4326 	 63.3244 	 7.9682 	 3.9000
  0.4000 	 1.2000 	 7.0681 	 14.3848 	 2.4102 	 34.2871 	 2.6267 	 41.9515 	 53.4760 	 7.6644 	 3.9000
  0.4000 	 1.0000 	 6.6684 	 15.0017 	 2.8348 	 28.4231 	 2.9229 	 36.1951 	 73.4101 	 7.7720 	 4.0000
  0.4000 	 1.1000 	 6.8622 	 14.7872 	 2.6299 	 31.1573 	 2.7848 	 38.9712 	 63.3637 	 7.8139 	 4.0000
  0.4000 	 1.2000 	 7.0237 	 14.6153 	 2.4578 	 33.9829 	 2.6749 	 41.4943 	 53.4380 	 7.5114 	 4.0000
  0.4000 	 1.0000 	 6.6151 	 15.2506 	 2.8909 	 28.1176 	 2.9789 	 35.7417 	 73.5064 	 7.6241 	 4.1000
  0.4000 	 1.1000 	 6.8138 	 15.0254 	 2.6813 	 30.8535 	 2.8364 	 38.5192 	 63.4003 	 7.6657 	 4.1000
  0.4000 	 1.2000 	 6.9793 	 14.8451 	 2.5052 	 33.6816 	 2.7231 	 41.0461 	 53.3993 	 7.3645 	 4.1000
  0.4000 	 1.0000 	 6.5618 	 15.4995 	 2.9468 	 27.8157 	 3.0347 	 35.2978 	 73.5985 	 7.4820 	 4.2000
  0.4000 	 1.1000 	 6.7653 	 15.2632 	 2.7325 	 30.5530 	 2.8879 	 38.0763 	 63.4345 	 7.5233 	 4.2000
  0.4000 	 1.2000 	 6.9349 	 15.0744 	 2.5526 	 33.3833 	 2.7710 	 40.6067 	 53.3600 	 7.2234 	 4.2000
  0.4000 	 1.0000 	 6.5086 	 15.7486 	 3.0027 	 27.5175 	 3.0904 	 34.8628 	 73.6868 	 7.3454 	 4.3000
  0.4000 	 1.1000 	 6.7169 	 15.5009 	 2.7837 	 30.2558 	 2.9393 	 37.6422 	 63.4665 	 7.3863 	 4.3000
  0.4000 	 1.2000 	 6.8905 	 15.3032 	 2.5999 	 33.0879 	 2.8189 	 40.1756 	 53.3203 	 7.0878 	 4.3000
  0.4000 	 1.0000 	 6.4553 	 15.9979 	 3.0585 	 27.2227 	 3.1461 	 34.4365 	 73.7715 	 7.2138 	 4.4000
  0.4000 	 1.1000 	 6.6684 	 15.7385 	 2.8348 	 29.9619 	 2.9906 	 37.2163 	 63.4965 	 7.2544 	 4.4000
  0.4000 	 1.2000 	 6.8461 	 15.5317 	 2.6470 	 32.7954 	 2.8667 	 39.7526 	 53.2802 	 6.9572 	 4.4000
  0.4000 	 1.0000 	 6.4020 	 16.2475 	 3.1142 	 26.9314 	 3.2016 	 34.0184 	 73.8528 	 7.0870 	 4.5000
  0.4000 	 1.1000 	 6.6200 	 15.9760 	 2.8858 	 29.6712 	 3.0418 	 36.7985 	 63.5246 	 7.1273 	 4.5000
  0.4000 	 1.2000 	 6.8016 	 15.7598 	 2.6941 	 32.5059 	 2.9143 	 39.3373 	 53.2399 	 6.8315 	 4.5000
  0.5000 	 1.0000 	 7.2546 	 12.2349 	 2.1619 	 29.5795 	 2.2996 	 41.9546 	 67.9143 	 12.3752 	 2.9000
  0.5000 	 1.1000 	 7.3951 	 12.1176 	 2.0078 	 32.1851 	 2.2077 	 44.6825 	 60.3361 	 12.4974 	 2.9000
  0.5000 	 1.2000 	 7.5122 	 12.0225 	 1.8777 	 34.8375 	 2.1351 	 47.1286 	 53.0790 	 12.2911 	 2.9000
  0.5000 	 1.0000 	 7.2013 	 12.4910 	 2.2198 	 29.2953 	 2.3571 	 41.3606 	 68.1258 	 12.0653 	 3.0000
  0.5000 	 1.1000 	 7.3467 	 12.3663 	 2.0611 	 31.9095 	 2.2610 	 44.0962 	 60.4822 	 12.1868 	 3.0000
  0.5000 	 1.2000 	 7.4678 	 12.2652 	 1.9273 	 34.5711 	 2.1851 	 46.5529 	 53.1491 	 11.9817 	 3.0000
  0.5000 	 1.0000 	 7.1480 	 12.7457 	 2.2776 	 29.0114 	 2.4143 	 40.7829 	 68.3252 	 11.7716 	 3.1000
  0.5000 	 1.1000 	 7.2982 	 12.6134 	 2.1142 	 31.6332 	 2.3142 	 43.5255 	 60.6185 	 11.8923 	 3.1000
  0.5000 	 1.2000 	 7.4234 	 12.5062 	 1.9765 	 34.3033 	 2.2350 	 45.9918 	 53.2115 	 11.6884 	 3.1000
  0.5000 	 1.0000 	 7.0947 	 12.9993 	 2.3351 	 28.7282 	 2.4714 	 40.2209 	 68.5134 	 11.4927 	 3.2000
  0.5000 	 1.1000 	 7.2498 	 12.8590 	 2.1671 	 31.3569 	 2.3671 	 42.9696 	 60.7457 	 11.6126 	 3.2000
  0.5000 	 1.2000 	 7.3789 	 12.7454 	 2.0256 	 34.0347 	 2.2846 	 45.4446 	 53.2668 	 11.4099 	 3.2000
  0.5000 	 1.0000 	 7.0414 	 13.2518 	 2.3924 	 28.4460 	 2.5283 	 39.6735 	 68.6914 	 11.2275 	 3.3000
  0.5000 	 1.1000 	 7.2013 	 13.1033 	 2.2198 	 31.0810 	 2.4199 	 42.4276 	 60.8647 	 11.3466 	 3.3000
  0.5000 	 1.2000 	 7.3345 	 12.9832 	 2.0744 	 33.7657 	 2.3340 	 44.9107 	 53.3159 	 11.1450 	 3.3000
  0.5000 	 1.0000 	 6.9882 	 13.5035 	 2.4496 	 28.1650 	 2.5851 	 39.1400 	 68.8601 	 10.9750 	 3.4000
  0.5000 	 1.1000 	 7.1529 	 13.3464 	 2.2723 	 30.8056 	 2.4725 	 41.8988 	 60.9762 	 11.0932 	 3.4000
  0.5000 	 1.2000 	 7.2901 	 13.2196 	 2.1231 	 33.4966 	 2.3832 	 44.3894 	 53.3595 	 10.8927 	 3.4000
  0.5000 	 1.0000 	 6.9349 	 13.7543 	 2.5066 	 27.8856 	 2.6417 	 38.6197 	 69.0202 	 10.7341 	 3.5000
  0.5000 	 1.1000 	 7.1044 	 13.5884 	 2.3247 	 30.5311 	 2.5249 	 41.3827 	 61.0809 	 10.8516 	 3.5000
  0.5000 	 1.2000 	 7.2457 	 13.4547 	 2.1715 	 33.2279 	 2.4322 	 43.8800 	 53.3980 	 10.6521 	 3.5000
  0.5000 	 1.0000 	 6.8816 	 14.0046 	 2.5634 	 27.6078 	 2.6982 	 38.1120 	 69.1722 	 10.5042 	 3.6000
  0.5000 	 1.1000 	 7.0560 	 13.8296 	 2.3768 	 30.2578 	 2.5771 	 40.8786 	 61.1793 	 10.6208 	 3.6000
  0.5000 	 1.2000 	 7.2013 	 13.6886 	 2.2198 	 32.9596 	 2.4811 	 43.3820 	 53.4320 	 10.4224 	 3.6000
  0.5000 	 1.0000 	 6.8283 	 14.2543 	 2.6201 	 27.3318 	 2.7546 	 37.6163 	 69.3169 	 10.2845 	 3.7000
  0.5000 	 1.1000 	 7.0075 	 14.0699 	 2.4288 	 29.9857 	 2.6292 	 40.3859 	 61.2720 	 10.4002 	 3.7000
  0.5000 	 1.2000 	 7.1569 	 13.9216 	 2.2680 	 32.6921 	 2.5298 	 42.8950 	 53.4619 	 10.2028 	 3.7000
  0.5000 	 1.0000 	 6.7750 	 14.5037 	 2.6766 	 27.0577 	 2.8108 	 37.1319 	 69.4548 	 10.0742 	 3.8000
  0.5000 	 1.1000 	 6.9591 	 14.3096 	 2.4807 	 29.7151 	 2.6812 	 39.9040 	 61.3594 	 10.1890 	 3.8000
  0.5000 	 1.2000 	 7.1125 	 14.1536 	 2.3159 	 32.4256 	 2.5783 	 42.4183 	 53.4882 	 9.9927 	 3.8000
  0.5000 	 1.0000 	 6.7217 	 14.7528 	 2.7330 	 26.7856 	 2.8669 	 36.6583 	 69.5862 	 9.8727 	 3.9000
  0.5000 	 1.1000 	 6.9106 	 14.5486 	 2.5324 	 29.4460 	 2.7331 	 39.4326 	 61.4420 	 9.9866 	 3.9000
  0.5000 	 1.2000 	 7.0681 	 14.3848 	 2.3638 	 32.1602 	 2.6267 	 41.9515 	 53.5111 	 9.7913 	 3.9000
  0.5000 	 1.3000 	 7.2013 	 14.2504 	 2.2198 	 34.9824 	 2.5408 	 44.2410 	 45.5857 	 9.2586 	 3.9000
  0.5000 	 1.0000 	 6.6684 	 15.0017 	 2.7893 	 26.5156 	 2.9229 	 36.1951 	 69.7118 	 9.6795 	 4.0000
  0.5000 	 1.1000 	 6.8622 	 14.7872 	 2.5840 	 29.1786 	 2.7848 	 38.9712 	 61.5200 	 9.7925 	 4.0000
  0.5000 	 1.2000 	 7.0237 	 14.6153 	 2.4115 	 31.8961 	 2.6749 	 41.4943 	 53.5310 	 9.5982 	 4.0000
  0.5000 	 1.3000 	 7.1603 	 14.4744 	 2.2643 	 34.7228 	 2.5862 	 43.7898 	 45.5324 	 9.0670 	 4.0000
  0.5000 	 1.0000 	 6.6151 	 15.2506 	 2.8455 	 26.2477 	 2.9789 	 35.7417 	 69.8318 	 9.4940 	 4.1000
  0.5000 	 1.1000 	 6.8138 	 15.0254 	 2.6355 	 28.9130 	 2.8364 	 38.5192 	 61.5939 	 9.6062 	 4.1000
  0.5000 	 1.2000 	 6.9793 	 14.8451 	 2.4591 	 31.6333 	 2.7231 	 41.0461 	 53.5481 	 9.4129 	 4.1000
  0.5000 	 1.3000 	 7.1193 	 14.6976 	 2.3086 	 34.4642 	 2.6315 	 43.3473 	 45.4779 	 8.8832 	 4.1000
  0.5000 	 1.0000 	 6.5618 	 15.4995 	 2.9015 	 25.9819 	 3.0347 	 35.2978 	 69.9467 	 9.3158 	 4.2000
  0.5000 	 1.1000 	 6.7653 	 15.2632 	 2.6869 	 28.6492 	 2.8879 	 38.0763 	 61.6639 	 9.4271 	 4.2000
  0.5000 	 1.2000 	 6.9349 	 15.0744 	 2.5066 	 31.3719 	 2.7710 	 40.6067 	 53.5628 	 9.2348 	 4.2000
  0.5000 	 1.3000 	 7.0783 	 14.9200 	 2.3528 	 34.2065 	 2.6766 	 42.9131 	 45.4222 	 8.7066 	 4.2000
  0.5000 	 1.0000 	 6.5086 	 15.7486 	 2.9575 	 25.7183 	 3.0904 	 34.8628 	 70.0567 	 9.1445 	 4.3000
  0.5000 	 1.1000 	 6.7169 	 15.5009 	 2.7381 	 28.3873 	 2.9393 	 37.6422 	 61.7303 	 9.2549 	 4.3000
  0.5000 	 1.2000 	 6.8905 	 15.3032 	 2.5539 	 31.1121 	 2.8189 	 40.1756 	 53.5752 	 9.0635 	 4.3000
  0.5000 	 1.3000 	 7.0373 	 15.1417 	 2.3968 	 33.9501 	 2.7216 	 42.4870 	 45.3655 	 8.5369 	 4.3000
  0.5000 	 1.0000 	 6.4553 	 15.9979 	 3.0133 	 25.4569 	 3.1461 	 34.4365 	 70.1623 	 8.9796 	 4.4000
  0.5000 	 1.1000 	 6.6684 	 15.7385 	 2.7893 	 28.1272 	 2.9906 	 37.2163 	 61.7934 	 9.0891 	 4.4000
  0.5000 	 1.2000 	 6.8461 	 15.5317 	 2.6012 	 30.8539 	 2.8667 	 39.7526 	 53.5855 	 8.8987 	 4.4000
  0.5000 	 1.3000 	 6.9964 	 15.3629 	 2.4408 	 33.6948 	 2.7664 	 42.0685 	 45.3082 	 8.3737 	 4.4000
  0.5000 	 1.0000 	 6.4020 	 16.2475 	 3.0691 	 25.1977 	 3.2016 	 34.0184 	 70.2635 	 8.8208 	 4.5000
  0.5000 	 1.1000 	 6.6200 	 15.9760 	 2.8404 	 27.8691 	 3.0418 	 36.7985 	 61.8534 	 8.9294 	 4.5000
  0.5000 	 1.2000 	 6.8016 	 15.7598 	 2.6483 	 30.5974 	 2.9143 	 39.3373 	 53.5940 	 8.7399 	 4.5000
  0.5000 	 1.3000 	 6.9554 	 15.5836 	 2.4847 	 33.4409 	 2.8112 	 41.6574 	 45.2502 	 8.2165 	 4.5000
  0.6000 	 1.0000 	 7.2546 	 12.2349 	 2.1067 	 27.1239 	 2.2996 	 41.9546 	 63.9927 	 14.8308 	 2.9000
  0.6000 	 1.1000 	 7.3951 	 12.1176 	 1.9519 	 29.6586 	 2.2077 	 44.6825 	 57.4902 	 15.0239 	 2.9000
  0.6000 	 1.2000 	 7.5122 	 12.0225 	 1.8211 	 32.2293 	 2.1351 	 47.1286 	 51.2996 	 14.8993 	 2.9000
  0.6000 	 1.3000 	 7.6112 	 11.9437 	 1.7089 	 34.8734 	 2.0768 	 49.3273 	 45.3101 	 14.4539 	 2.9000
  0.6000 	 1.0000 	 7.2013 	 12.4910 	 2.1649 	 26.9055 	 2.3571 	 41.3606 	 64.2476 	 14.4551 	 3.0000
  0.6000 	 1.1000 	 7.3467 	 12.3663 	 2.0055 	 29.4493 	 2.2610 	 44.0962 	 57.6936 	 14.6469 	 3.0000
  0.6000 	 1.2000 	 7.4678 	 12.2652 	 1.8710 	 32.0293 	 2.1851 	 46.5529 	 51.4435 	 14.5236 	 3.0000
  0.6000 	 1.3000 	 7.5702 	 12.1816 	 1.7556 	 34.6831 	 2.1242 	 48.7637 	 45.3853 	 14.0807 	 3.0000
  0.6000 	 1.0000 	 7.1480 	 12.7457 	 2.2229 	 26.6838 	 2.4143 	 40.7829 	 64.4876 	 14.0992 	 3.1000
  0.6000 	 1.1000 	 7.2982 	 12.6134 	 2.0589 	 29.2359 	 2.3142 	 43.5255 	 57.8838 	 14.2896 	 3.1000
  0.6000 	 1.2000 	 7.4234 	 12.5062 	 1.9205 	 31.8243 	 2.2350 	 45.9918 	 51.5759 	 14.1675 	 3.1000
  0.6000 	 1.3000 	 7.5293 	 12.4176 	 1.8019 	 34.4871 	 2.1714 	 48.2140 	 45.4502 	 13.7270 	 3.1000
  0.6000 	 1.0000 	 7.0947 	 12.9993 	 2.2806 	 26.4593 	 2.4714 	 40.2209 	 64.7141 	 13.7615 	 3.2000
  0.6000 	 1.1000 	 7.2498 	 12.8590 	 2.1120 	 29.0190 	 2.3671 	 42.9696 	 58.0621 	 13.9505 	 3.2000
  0.6000 	 1.2000 	 7.3789 	 12.7454 	 1.9698 	 31.6151 	 2.2846 	 45.4446 	 51.6978 	 13.8295 	 3.2000
  0.6000 	 1.3000 	 7.4883 	 12.6517 	 1.8480 	 34.2863 	 2.2183 	 47.6775 	 45.5062 	 13.3912 	 3.2000
  0.6000 	 1.0000 	 7.0414 	 13.2518 	 2.3381 	 26.2329 	 2.5283 	 39.6735 	 64.9282 	 13.4406 	 3.3000
  0.6000 	 1.1000 	 7.2013 	 13.1033 	 2.1649 	 28.7994 	 2.4199 	 42.4276 	 58.2294 	 13.6282 	 3.3000
  0.6000 	 1.2000 	 7.3345 	 12.9832 	 2.0189 	 31.4025 	 2.3340 	 44.9107 	 51.8102 	 13.5082 	 3.3000
  0.6000 	 1.3000 	 7.4473 	 12.8841 	 1.8939 	 34.0814 	 2.2649 	 47.1535 	 45.5541 	 13.0721 	 3.3000
  0.6000 	 1.0000 	 6.9882 	 13.5035 	 2.3955 	 26.0049 	 2.5851 	 39.1400 	 65.1310 	 13.1351 	 3.4000
  0.6000 	 1.1000 	 7.1529 	 13.3464 	 2.2176 	 28.5775 	 2.4725 	 41.8988 	 58.3869 	 13.3213 	 3.4000
  0.6000 	 1.2000 	 7.2901 	 13.2196 	 2.0678 	 31.1871 	 2.3832 	 44.3894 	 51.9142 	 13.2022 	 3.4000
  0.6000 	 1.3000 	 7.4063 	 13.1150 	 1.9395 	 33.8731 	 2.3114 	 46.6414 	 45.5948 	 12.7683 	 3.4000
  0.6000 	 1.0000 	 6.9349 	 13.7543 	 2.4526 	 25.7757 	 2.6417 	 38.6197 	 65.3232 	 12.8440 	 3.5000
  0.6000 	 1.1000 	 7.1044 	 13.5884 	 2.2701 	 28.3540 	 2.5249 	 41.3827 	 58.5352 	 13.0287 	 3.5000
  0.6000 	 1.2000 	 7.2457 	 13.4547 	 2.1164 	 30.9694 	 2.4322 	 43.8800 	 52.0104 	 12.9106 	 3.5000
  0.6000 	 1.3000 	 7.3653 	 13.3445 	 1.9849 	 33.6620 	 2.3576 	 46.1406 	 45.6291 	 12.4786 	 3.5000
  0.6000 	 1.0000 	 6.8816 	 14.0046 	 2.5096 	 25.5458 	 2.6982 	 38.1120 	 65.5059 	 12.5663 	 3.6000
  0.6000 	 1.1000 	 7.0560 	 13.8296 	 2.3225 	 28.1291 	 2.5771 	 40.8786 	 58.6752 	 12.7495 	 3.6000
  0.6000 	 1.2000 	 7.2013 	 13.6886 	 2.1649 	 30.7499 	 2.4811 	 43.3820 	 52.0996 	 12.6322 	 3.6000
  0.6000 	 1.3000 	 7.3243 	 13.5727 	 2.0302 	 33.4484 	 2.4037 	 45.6506 	 45.6576 	 12.2022 	 3.6000
  0.6000 	 1.0000 	 6.8283 	 14.2543 	 2.5664 	 25.3155 	 2.7546 	 37.6163 	 65.6796 	 12.3008 	 3.7000
  0.6000 	 1.1000 	 7.0075 	 14.0699 	 2.3746 	 27.9033 	 2.6292 	 40.3859 	 58.8075 	 12.4826 	 3.7000
  0.6000 	 1.2000 	 7.1569 	 13.9216 	 2.2132 	 30.5289 	 2.5298 	 42.8950 	 52.1823 	 12.3661 	 3.7000
  0.6000 	 1.3000 	 7.2833 	 13.7997 	 2.0753 	 33.2330 	 2.4496 	 45.1710 	 45.6809 	 11.9381 	 3.7000
  0.6000 	 1.0000 	 6.7750 	 14.5037 	 2.6230 	 25.0849 	 2.8108 	 37.1319 	 65.8450 	 12.0470 	 3.8000
  0.6000 	 1.1000 	 6.9591 	 14.3096 	 2.4266 	 27.6768 	 2.6812 	 39.9040 	 58.9327 	 12.2272 	 3.8000
  0.6000 	 1.2000 	 7.1125 	 14.1536 	 2.2614 	 30.3068 	 2.5783 	 42.4183 	 52.2592 	 12.1115 	 3.8000
  0.6000 	 1.3000 	 7.2423 	 14.0255 	 2.1202 	 33.0160 	 2.4953 	 44.7013 	 45.6995 	 11.6854 	 3.8000
  0.6000 	 1.0000 	 6.7217 	 14.7528 	 2.6796 	 24.8545 	 2.8669 	 36.6583 	 66.0027 	 11.8038 	 3.9000
  0.6000 	 1.1000 	 6.9106 	 14.5486 	 2.4785 	 27.4500 	 2.7331 	 39.4326 	 59.0513 	 11.9826 	 3.9000
  0.6000 	 1.2000 	 7.0681 	 14.3848 	 2.3094 	 30.0839 	 2.6267 	 41.9515 	 52.3307 	 11.8677 	 3.9000
  0.6000 	 1.3000 	 7.2013 	 14.2504 	 2.1649 	 32.7977 	 2.5408 	 44.2410 	 45.7139 	 11.4434 	 3.9000
  0.6000 	 1.0000 	 6.6684 	 15.0017 	 2.7360 	 24.6243 	 2.9229 	 36.1951 	 66.1533 	 11.5708 	 4.0000
  0.6000 	 1.1000 	 6.8622 	 14.7872 	 2.5302 	 27.2230 	 2.7848 	 38.9712 	 59.1639 	 11.7481 	 4.0000
  0.6000 	 1.2000 	 7.0237 	 14.6153 	 2.3573 	 29.8604 	 2.6749 	 41.4943 	 52.3972 	 11.6339 	 4.0000
  0.6000 	 1.3000 	 7.1603 	 14.4744 	 2.2095 	 32.5785 	 2.5862 	 43.7898 	 45.7245 	 11.2114 	 4.0000
  0.6000 	 1.0000 	 6.6151 	 15.2506 	 2.7923 	 24.3945 	 2.9789 	 35.7417 	 66.2971 	 11.3472 	 4.1000
  0.6000 	 1.1000 	 6.8138 	 15.0254 	 2.5819 	 26.9962 	 2.8364 	 38.5192 	 59.2709 	 11.5230 	 4.1000
  0.6000 	 1.2000 	 6.9793 	 14.8451 	 2.4050 	 29.6367 	 2.7231 	 41.0461 	 52.4593 	 11.4095 	 4.1000
  0.6000 	 1.3000 	 7.1193 	 14.6976 	 2.2540 	 32.3586 	 2.6315 	 43.3473 	 45.7317 	 10.9888 	 4.1000
  0.6000 	 1.0000 	 6.5618 	 15.4995 	 2.8484 	 24.1653 	 3.0347 	 35.2978 	 66.4348 	 11.1324 	 4.2000
  0.6000 	 1.1000 	 6.7653 	 15.2632 	 2.6333 	 26.7695 	 2.8879 	 38.0763 	 59.3726 	 11.3068 	 4.2000
  0.6000 	 1.2000 	 6.9349 	 15.0744 	 2.4526 	 29.4128 	 2.7710 	 40.6067 	 52.5172 	 11.1939 	 4.2000
  0.6000 	 1.3000 	 7.0783 	 14.9200 	 2.2983 	 32.1382 	 2.6766 	 42.9131 	 45.7357 	 10.7750 	 4.2000
  0.6000 	 1.0000 	 6.5086 	 15.7486 	 2.9045 	 23.9369 	 3.0904 	 34.8628 	 66.5666 	 10.9260 	 4.3000
  0.6000 	 1.1000 	 6.7169 	 15.5009 	 2.6847 	 26.5432 	 2.9393 	 37.6422 	 59.4695 	 11.0989 	 4.3000
  0.6000 	 1.2000 	 6.8905 	 15.3032 	 2.5001 	 29.1890 	 2.8189 	 40.1756 	 52.5712 	 10.9866 	 4.3000
  0.6000 	 1.3000 	 7.0373 	 15.1417 	 2.3425 	 31.9175 	 2.7216 	 42.4870 	 45.7369 	 10.5694 	 4.3000
  0.6000 	 1.4000 	 7.1633 	 15.0073 	 2.2063 	 34.7897 	 2.6418 	 44.5982 	 38.7880 	 9.8086 	 4.3000
  0.6000 	 1.0000 	 6.4553 	 15.9979 	 2.9604 	 23.7092 	 3.1461 	 34.4365 	 66.6930 	 10.7273 	 4.4000
  0.6000 	 1.1000 	 6.6684 	 15.7385 	 2.7360 	 26.3175 	 2.9906 	 37.2163 	 59.5618 	 10.8988 	 4.4000
  0.6000 	 1.2000 	 6.8461 	 15.5317 	 2.5475 	 28.9654 	 2.8667 	 39.7526 	 52.6217 	 10.7872 	 4.4000
  0.6000 	 1.3000 	 6.9964 	 15.3629 	 2.3866 	 31.6968 	 2.7664 	 42.0685 	 45.7356 	 10.3717 	 4.4000
  0.6000 	 1.4000 	 7.1252 	 15.2226 	 2.2476 	 34.5733 	 2.6842 	 44.1856 	 38.7203 	 9.6123 	 4.4000
  0.6000 	 1.0000 	 6.4020 	 16.2475 	 3.0163 	 23.4823 	 3.2016 	 34.0184 	 66.8142 	 10.5361 	 4.5000
  0.6000 	 1.1000 	 6.6200 	 15.9760 	 2.7871 	 26.0924 	 3.0418 	 36.7985 	 59.6500 	 10.7062 	 4.5000
  0.6000 	 1.2000 	 6.8016 	 15.7598 	 2.5947 	 28.7422 	 2.9143 	 39.3373 	 52.6689 	 10.5951 	 4.5000
  0.6000 	 1.3000 	 6.9554 	 15.5836 	 2.4306 	 31.4761 	 2.8112 	 41.6574 	 45.7320 	 10.1814 	 4.5000
  0.6000 	 1.4000 	 7.0871 	 15.4371 	 2.2888 	 34.3566 	 2.7265 	 43.7800 	 38.6513 	 9.4234 	 4.5000
  0.7000 	 1.0000 	 7.2546 	 12.2349 	 2.0443 	 24.6656 	 2.2996 	 41.9546 	 60.2197 	 17.2891 	 2.9000
  0.7000 	 1.1000 	 7.3951 	 12.1176 	 1.8886 	 27.1307 	 2.2077 	 44.6825 	 54.4536 	 17.5518 	 2.9000
  0.7000 	 1.2000 	 7.5122 	 12.0225 	 1.7569 	 29.6340 	 2.1351 	 47.1286 	 48.9838 	 17.4947 	 2.9000
  0.7000 	 1.3000 	 7.6112 	 11.9437 	 1.6438 	 32.2086 	 2.0768 	 49.3273 	 43.7264 	 17.1187 	 2.9000
  0.7000 	 1.4000 	 7.6961 	 11.8774 	 1.5453 	 34.8954 	 2.0294 	 51.3089 	 38.5920 	 16.4135 	 2.9000
  0.7000 	 1.0000 	 7.2013 	 12.4910 	 2.1028 	 24.5155 	 2.3571 	 41.3606 	 60.5189 	 16.8451 	 3.0000
  0.7000 	 1.1000 	 7.3467 	 12.3663 	 1.9426 	 26.9905 	 2.2610 	 44.0962 	 54.7121 	 17.1057 	 3.0000
  0.7000 	 1.2000 	 7.4678 	 12.2652 	 1.8071 	 29.5029 	 2.1851 	 46.5529 	 49.1953 	 17.0499 	 3.0000
  0.7000 	 1.3000 	 7.5702 	 12.1816 	 1.6908 	 32.0862 	 2.1242 	 48.7637 	 43.8842 	 16.6776 	 3.0000
  0.7000 	 1.4000 	 7.6581 	 12.1113 	 1.5896 	 34.7811 	 2.0746 	 50.7586 	 38.6882 	 15.9775 	 3.0000
  0.7000 	 1.0000 	 7.1480 	 12.7457 	 2.1610 	 24.3581 	 2.4143 	 40.7829 	 60.8004 	 16.4249 	 3.1000
  0.7000 	 1.1000 	 7.2982 	 12.6134 	 1.9962 	 26.8422 	 2.3142 	 43.5255 	 54.9542 	 16.6834 	 3.1000
  0.7000 	 1.2000 	 7.4234 	 12.5062 	 1.8570 	 29.3631 	 2.2350 	 45.9918 	 49.3914 	 16.6287 	 3.1000
  0.7000 	 1.3000 	 7.5293 	 12.4176 	 1.7376 	 31.9542 	 2.1714 	 48.2140 	 44.0276 	 16.2598 	 3.1000
  0.7000 	 1.4000 	 7.6200 	 12.3431 	 1.6337 	 34.6570 	 2.1195 	 50.2213 	 38.7707 	 15.5643 	 3.1000
  0.7000 	 1.0000 	 7.0947 	 12.9993 	 2.2190 	 24.1944 	 2.4714 	 40.2209 	 61.0660 	 16.0264 	 3.2000
  0.7000 	 1.1000 	 7.2498 	 12.8590 	 2.0496 	 26.6868 	 2.3671 	 42.9696 	 55.1813 	 16.2828 	 3.2000
  0.7000 	 1.2000 	 7.3789 	 12.7454 	 1.9066 	 29.2155 	 2.2846 	 45.4446 	 49.5736 	 16.2291 	 3.2000
  0.7000 	 1.3000 	 7.4883 	 12.6517 	 1.7840 	 31.8141 	 2.2183 	 47.6775 	 44.1580 	 15.8634 	 3.2000
  0.7000 	 1.4000 	 7.5820 	 12.5730 	 1.6774 	 34.5244 	 2.1642 	 49.6965 	 38.8410 	 15.1721 	 3.2000
  0.7000 	 1.0000 	 7.0414 	 13.2518 	 2.2767 	 24.0254 	 2.5283 	 39.6735 	 61.3168 	 15.6480 	 3.3000
  0.7000 	 1.1000 	 7.2013 	 13.1033 	 2.1028 	 26.5254 	 2.4199 	 42.4276 	 55.3949 	 15.9022 	 3.3000
  0.7000 	 1.2000 	 7.3345 	 12.9832 	 1.9560 	 29.0612 	 2.3340 	 44.9107 	 49.7433 	 15.8495 	 3.3000
  0.7000 	 1.3000 	 7.4473 	 12.8841 	 1.8302 	 31.6668 	 2.2649 	 47.1535 	 44.2769 	 15.4867 	 3.3000
  0.7000 	 1.4000 	 7.5439 	 12.8010 	 1.7209 	 34.3842 	 2.2086 	 49.1836 	 38.9004 	 14.7994 	 3.3000
  0.7000 	 1.0000 	 6.9882 	 13.5035 	 2.3343 	 23.8519 	 2.5851 	 39.1400 	 61.5542 	 15.2881 	 3.4000
  0.7000 	 1.1000 	 7.1529 	 13.3464 	 2.1557 	 26.3587 	 2.4725 	 41.8988 	 55.5960 	 15.5401 	 3.4000
  0.7000 	 1.2000 	 7.2901 	 13.2196 	 2.0052 	 28.9012 	 2.3832 	 44.3894 	 49.9015 	 15.4882 	 3.4000
  0.7000 	 1.3000 	 7.4063 	 13.1150 	 1.8761 	 31.5131 	 2.3114 	 46.6414 	 44.3852 	 15.1282 	 3.4000
  0.7000 	 1.4000 	 7.5058 	 13.0274 	 1.7641 	 34.2373 	 2.2527 	 48.6819 	 38.9502 	 14.4446 	 3.4000
  0.7000 	 1.0000 	 6.9349 	 13.7543 	 2.3916 	 23.6744 	 2.6417 	 38.6197 	 61.7792 	 14.9453 	 3.5000
  0.7000 	 1.1000 	 7.1044 	 13.5884 	 2.2085 	 26.1876 	 2.5249 	 41.3827 	 55.7857 	 15.1951 	 3.5000
  0.7000 	 1.2000 	 7.2457 	 13.4547 	 2.0541 	 28.7360 	 2.4322 	 43.8800 	 50.0494 	 15.1440 	 3.5000
  0.7000 	 1.3000 	 7.3653 	 13.3445 	 1.9219 	 31.3540 	 2.3576 	 46.1406 	 44.4841 	 14.7866 	 3.5000
  0.7000 	 1.4000 	 7.4678 	 13.2522 	 1.8071 	 34.0845 	 2.2967 	 48.1909 	 38.9912 	 14.1064 	 3.5000
  0.7000 	 1.0000 	 6.8816 	 14.0046 	 2.4488 	 23.4936 	 2.6982 	 38.1120 	 61.9928 	 14.6184 	 3.6000
  0.7000 	 1.1000 	 7.0560 	 13.8296 	 2.2610 	 26.0125 	 2.5771 	 40.8786 	 55.9650 	 14.8660 	 3.6000
  0.7000 	 1.2000 	 7.2013 	 13.6886 	 2.1028 	 28.5665 	 2.4811 	 43.3820 	 50.1878 	 14.8155 	 3.6000
  0.7000 	 1.3000 	 7.3243 	 13.5727 	 1.9674 	 31.1900 	 2.4037 	 45.6506 	 44.5743 	 14.4607 	 3.6000
  0.7000 	 1.4000 	 7.4297 	 13.4756 	 1.8499 	 33.9265 	 2.3405 	 47.7102 	 39.0244 	 13.7837 	 3.6000
  0.7000 	 1.0000 	 6.8283 	 14.2543 	 2.5058 	 23.3101 	 2.7546 	 37.6163 	 62.1959 	 14.3062 	 3.7000
  0.7000 	 1.1000 	 7.0075 	 14.0699 	 2.3134 	 25.8342 	 2.6292 	 40.3859 	 56.1346 	 14.5517 	 3.7000
  0.7000 	 1.2000 	 7.1569 	 13.9216 	 2.1513 	 28.3932 	 2.5298 	 42.8950 	 50.3175 	 14.5017 	 3.7000
  0.7000 	 1.3000 	 7.2833 	 13.7997 	 2.0127 	 31.0218 	 2.4496 	 45.1710 	 44.6568 	 14.1493 	 3.7000
  0.7000 	 1.4000 	 7.3916 	 13.6977 	 1.8925 	 33.7639 	 2.3840 	 47.2393 	 39.0505 	 13.4754 	 3.7000
  0.7000 	 1.0000 	 6.7750 	 14.5037 	 2.5626 	 23.1242 	 2.8108 	 37.1319 	 62.3891 	 14.0077 	 3.8000
  0.7000 	 1.1000 	 6.9591 	 14.3096 	 2.3656 	 25.6530 	 2.6812 	 39.9040 	 56.2954 	 14.2510 	 3.8000
  0.7000 	 1.2000 	 7.1125 	 14.1536 	 2.1997 	 28.2166 	 2.5783 	 42.4183 	 50.4392 	 14.2016 	 3.8000
  0.7000 	 1.3000 	 7.2423 	 14.0255 	 2.0578 	 30.8499 	 2.4953 	 44.7013 	 44.7322 	 13.8514 	 3.8000
  0.7000 	 1.4000 	 7.3536 	 13.9185 	 1.9349 	 33.5973 	 2.4274 	 46.7779 	 39.0704 	 13.1805 	 3.8000
  0.7000 	 1.0000 	 6.7217 	 14.7528 	 2.6193 	 22.9363 	 2.8669 	 36.6583 	 62.5733 	 13.7221 	 3.9000
  0.7000 	 1.1000 	 6.9106 	 14.5486 	 2.4176 	 25.4694 	 2.7331 	 39.4326 	 56.4480 	 13.9632 	 3.9000
  0.7000 	 1.2000 	 7.0681 	 14.3848 	 2.2479 	 28.0372 	 2.6267 	 41.9515 	 50.5536 	 13.9143 	 3.9000
  0.7000 	 1.3000 	 7.2013 	 14.2504 	 2.1028 	 30.6748 	 2.5408 	 44.2410 	 44.8011 	 13.5662 	 3.9000
  0.7000 	 1.4000 	 7.3155 	 14.1382 	 1.9771 	 33.4272 	 2.4706 	 46.3254 	 39.0846 	 12.8982 	 3.9000
  0.7000 	 1.0000 	 6.6684 	 15.0017 	 2.6758 	 22.7467 	 2.9229 	 36.1951 	 62.7491 	 13.4484 	 4.0000
  0.7000 	 1.1000 	 6.8622 	 14.7872 	 2.4695 	 25.2838 	 2.7848 	 38.9712 	 56.5930 	 13.6874 	 4.0000
  0.7000 	 1.2000 	 7.0237 	 14.6153 	 2.2959 	 27.8554 	 2.6749 	 41.4943 	 50.6613 	 13.6389 	 4.0000
  0.7000 	 1.3000 	 7.1603 	 14.4744 	 2.1476 	 30.4969 	 2.5862 	 43.7898 	 44.8641 	 13.2929 	 4.0000
  0.7000 	 1.4000 	 7.2774 	 14.3568 	 2.0192 	 33.2539 	 2.5136 	 45.8815 	 39.0936 	 12.6275 	 4.0000
  0.7000 	 1.0000 	 6.6151 	 15.2506 	 2.7322 	 22.5559 	 2.9789 	 35.7417 	 62.9170 	 13.1858 	 4.1000
  0.7000 	 1.1000 	 6.8138 	 15.0254 	 2.5213 	 25.0965 	 2.8364 	 38.5192 	 56.7309 	 13.4227 	 4.1000
  0.7000 	 1.2000 	 6.9793 	 14.8451 	 2.3439 	 27.6715 	 2.7231 	 41.0461 	 50.7627 	 13.3746 	 4.1000
  0.7000 	 1.3000 	 7.1193 	 14.6976 	 2.1923 	 30.3166 	 2.6315 	 43.3473 	 44.9218 	 13.0307 	 4.1000
  0.7000 	 1.4000 	 7.2394 	 14.5745 	 2.0611 	 33.0780 	 2.5565 	 45.4459 	 39.0980 	 12.3679 	 4.1000
  0.7000 	 1.0000 	 6.5618 	 15.4995 	 2.7885 	 22.3640 	 3.0347 	 35.2978 	 63.0775 	 12.9338 	 4.2000
  0.7000 	 1.1000 	 6.7653 	 15.2632 	 2.5729 	 24.9077 	 2.8879 	 38.0763 	 56.8623 	 13.1686 	 4.2000
  0.7000 	 1.2000 	 6.9349 	 15.0744 	 2.3916 	 27.4858 	 2.7710 	 40.6067 	 50.8584 	 13.1209 	 4.2000
  0.7000 	 1.3000 	 7.0783 	 14.9200 	 2.2368 	 30.1343 	 2.6766 	 42.9131 	 44.9745 	 12.7789 	 4.2000
  0.7000 	 1.4000 	 7.2013 	 14.7913 	 2.1028 	 32.8996 	 2.5992 	 45.0182 	 39.0981 	 12.1186 	 4.2000
  0.7000 	 1.0000 	 6.5086 	 15.7486 	 2.8447 	 22.1712 	 3.0904 	 34.8628 	 63.2313 	 12.6916 	 4.3000
  0.7000 	 1.1000 	 6.7169 	 15.5009 	 2.6244 	 24.7178 	 2.9393 	 37.6422 	 56.9876 	 12.9244 	 4.3000
  0.7000 	 1.2000 	 6.8905 	 15.3032 	 2.4393 	 27.2987 	 2.8189 	 40.1756 	 50.9488 	 12.8769 	 4.3000
  0.7000 	 1.3000 	 7.0373 	 15.1417 	 2.2812 	 29.9501 	 2.7216 	 42.4870 	 45.0226 	 12.5368 	 4.3000
  0.7000 	 1.4000 	 7.1633 	 15.0073 	 2.1444 	 32.7192 	 2.6418 	 44.5982 	 39.0945 	 11.8791 	 4.3000
  0.7000 	 1.0000 	 6.4553 	 15.9979 	 2.9007 	 21.9778 	 3.1461 	 34.4365 	 63.3786 	 12.4587 	 4.4000
  0.7000 	 1.1000 	 6.6684 	 15.7385 	 2.6758 	 24.5269 	 2.9906 	 37.2163 	 57.1072 	 12.6894 	 4.4000
  0.7000 	 1.2000 	 6.8461 	 15.5317 	 2.4868 	 27.1103 	 2.8667 	 39.7526 	 51.0343 	 12.6423 	 4.4000
  0.7000 	 1.3000 	 6.9964 	 15.3629 	 2.3254 	 29.7645 	 2.7664 	 42.0685 	 45.0666 	 12.3040 	 4.4000
  0.7000 	 1.4000 	 7.1252 	 15.2226 	 2.1859 	 32.5369 	 2.6842 	 44.1856 	 39.0874 	 11.6486 	 4.4000
  0.7000 	 1.0000 	 6.4020 	 16.2475 	 2.9567 	 21.7839 	 3.2016 	 34.0184 	 63.5198 	 12.2346 	 4.5000
  0.7000 	 1.1000 	 6.6200 	 15.9760 	 2.7271 	 24.3353 	 3.0418 	 36.7985 	 57.2214 	 12.4632 	 4.5000
  0.7000 	 1.2000 	 6.8016 	 15.7598 	 2.5342 	 26.9210 	 2.9143 	 39.3373 	 51.1152 	 12.4164 	 4.5000
  0.7000 	 1.3000 	 6.9554 	 15.5836 	 2.3696 	 29.5775 	 2.8112 	 41.6574 	 45.1067 	 12.0799 	 4.5000
  0.7000 	 1.4000 	 7.0871 	 15.4371 	 2.2273 	 32.3532 	 2.7265 	 43.7800 	 39.0772 	 11.4268 	 4.5000
  0.8000 	 1.0000 	 7.2546 	 12.2349 	 1.9755 	 22.1956 	 2.2996 	 41.9546 	 56.5960 	 19.7590 	 2.9000
  0.8000 	 1.1000 	 7.3951 	 12.1176 	 1.8187 	 24.5897 	 2.2077 	 44.6825 	 51.3538 	 20.0928 	 2.9000
  0.8000 	 1.2000 	 7.5122 	 12.0225 	 1.6859 	 27.0331 	 2.1351 	 47.1286 	 46.3920 	 20.0955 	 2.9000
  0.8000 	 1.3000 	 7.6112 	 11.9437 	 1.5716 	 29.5577 	 2.0768 	 49.3273 	 41.6412 	 19.7696 	 2.9000
  0.8000 	 1.4000 	 7.6961 	 11.8774 	 1.4718 	 32.2021 	 2.0294 	 51.3089 	 37.0286 	 19.1068 	 2.9000
  0.8000 	 1.0000 	 7.2013 	 12.4910 	 2.0343 	 22.1170 	 2.3571 	 41.3606 	 56.9409 	 19.2436 	 3.0000
  0.8000 	 1.1000 	 7.3467 	 12.3663 	 1.8731 	 24.5220 	 2.2610 	 44.0962 	 51.6672 	 19.5742 	 3.0000
  0.8000 	 1.2000 	 7.4678 	 12.2652 	 1.7366 	 26.9745 	 2.1851 	 46.5529 	 46.6686 	 19.5783 	 3.0000
  0.8000 	 1.3000 	 7.5702 	 12.1816 	 1.6191 	 29.5062 	 2.1242 	 48.7637 	 41.8761 	 19.2575 	 3.0000
  0.8000 	 1.4000 	 7.6581 	 12.1113 	 1.5168 	 32.1555 	 2.0746 	 50.7586 	 37.2166 	 18.6031 	 3.0000
  0.8000 	 1.5000 	 7.7342 	 12.0513 	 1.4265 	 34.9735 	 2.0337 	 52.5635 	 32.6060 	 17.5901 	 3.0000
  0.8000 	 1.0000 	 7.1480 	 12.7457 	 2.0929 	 22.0268 	 2.4143 	 40.7829 	 57.2652 	 18.7562 	 3.1000
  0.8000 	 1.1000 	 7.2982 	 12.6134 	 1.9271 	 24.4418 	 2.3142 	 43.5255 	 51.9606 	 19.0837 	 3.1000
  0.8000 	 1.2000 	 7.4234 	 12.5062 	 1.7869 	 26.9028 	 2.2350 	 45.9918 	 46.9259 	 19.0890 	 3.1000
  0.8000 	 1.3000 	 7.5293 	 12.4176 	 1.6664 	 29.4412 	 2.1714 	 48.2140 	 42.0921 	 18.7728 	 3.1000
  0.8000 	 1.4000 	 7.6200 	 12.3431 	 1.5613 	 32.0955 	 2.1195 	 50.2213 	 37.3859 	 18.1259 	 3.1000
  0.8000 	 1.5000 	 7.6987 	 12.2796 	 1.4688 	 34.9165 	 2.0768 	 52.0393 	 32.7218 	 17.1228 	 3.1000
  0.8000 	 1.0000 	 7.0947 	 12.9993 	 2.1511 	 21.9264 	 2.4714 	 40.2209 	 57.5708 	 18.2944 	 3.2000
  0.8000 	 1.1000 	 7.2498 	 12.8590 	 1.9809 	 24.3507 	 2.3671 	 42.9696 	 52.2361 	 18.6189 	 3.2000
  0.8000 	 1.2000 	 7.3789 	 12.7454 	 1.8369 	 26.8195 	 2.2846 	 45.4446 	 47.1657 	 18.6251 	 3.2000
  0.8000 	 1.3000 	 7.4883 	 12.6517 	 1.7132 	 29.3643 	 2.2183 	 47.6775 	 42.2912 	 18.3132 	 3.2000
  0.8000 	 1.4000 	 7.5820 	 12.5730 	 1.6056 	 32.0234 	 2.1642 	 49.6965 	 37.5385 	 17.6731 	 3.2000
  0.8000 	 1.5000 	 7.6632 	 12.5059 	 1.5108 	 34.8480 	 2.1195 	 51.5269 	 32.8208 	 16.6789 	 3.2000
  0.8000 	 1.0000 	 7.0414 	 13.2518 	 2.2092 	 21.8172 	 2.5283 	 39.6735 	 57.8593 	 17.8563 	 3.3000
  0.8000 	 1.1000 	 7.2013 	 13.1033 	 2.0343 	 24.2499 	 2.4199 	 42.4276 	 52.4950 	 18.1777 	 3.3000
  0.8000 	 1.2000 	 7.3345 	 12.9832 	 1.8866 	 26.7260 	 2.3340 	 44.9107 	 47.3898 	 18.1847 	 3.3000
  0.8000 	 1.3000 	 7.4473 	 12.8841 	 1.7598 	 29.2768 	 2.2649 	 47.1535 	 42.4750 	 17.8767 	 3.3000
  0.8000 	 1.4000 	 7.5439 	 12.8010 	 1.6495 	 31.9407 	 2.2086 	 49.1836 	 37.6762 	 17.2429 	 3.3000
  0.8000 	 1.5000 	 7.6276 	 12.7303 	 1.5525 	 34.7690 	 2.1620 	 51.0256 	 32.9049 	 16.2567 	 3.3000
  0.8000 	 1.0000 	 6.9882 	 13.5035 	 2.2669 	 21.7001 	 2.5851 	 39.1400 	 58.1321 	 17.4399 	 3.4000
  0.8000 	 1.1000 	 7.1529 	 13.3464 	 2.0876 	 24.1406 	 2.4725 	 41.8988 	 52.7390 	 17.7582 	 3.4000
  0.8000 	 1.2000 	 7.2901 	 13.2196 	 1.9361 	 26.6234 	 2.3832 	 44.3894 	 47.5995 	 17.7659 	 3.4000
  0.8000 	 1.3000 	 7.4063 	 13.1150 	 1.8062 	 29.1799 	 2.3114 	 46.6414 	 42.6450 	 17.4615 	 3.4000
  0.8000 	 1.4000 	 7.5058 	 13.0274 	 1.6932 	 31.8484 	 2.2527 	 48.6819 	 37.8005 	 16.8335 	 3.4000
  0.8000 	 1.5000 	 7.5921 	 12.9528 	 1.5938 	 34.6806 	 2.2043 	 50.5351 	 32.9756 	 15.8545 	 3.4000
  0.8000 	 1.0000 	 6.9349 	 13.7543 	 2.3245 	 21.5762 	 2.6417 	 38.6197 	 58.3905 	 17.0436 	 3.5000
  0.8000 	 1.1000 	 7.1044 	 13.5884 	 2.1406 	 24.0238 	 2.5249 	 41.3827 	 52.9693 	 17.3589 	 3.5000
  0.8000 	 1.2000 	 7.2457 	 13.4547 	 1.9853 	 26.5129 	 2.4322 	 43.8800 	 47.7961 	 17.3671 	 3.5000
  0.8000 	 1.3000 	 7.3653 	 13.3445 	 1.8522 	 29.0746 	 2.3576 	 46.1406 	 42.8024 	 17.0660 	 3.5000
  0.8000 	 1.4000 	 7.4678 	 13.2522 	 1.7366 	 31.7475 	 2.2967 	 48.1909 	 37.9126 	 16.4434 	 3.5000
  0.8000 	 1.5000 	 7.5566 	 13.1738 	 1.6349 	 34.5837 	 2.2464 	 50.0547 	 33.0344 	 15.4710 	 3.5000
  0.8000 	 1.0000 	 6.8816 	 14.0046 	 2.3819 	 21.4462 	 2.6982 	 38.1120 	 58.6356 	 16.6659 	 3.6000
  0.8000 	 1.1000 	 7.0560 	 13.8296 	 2.1934 	 23.9004 	 2.5771 	 40.8786 	 53.1869 	 16.9781 	 3.6000
  0.8000 	 1.2000 	 7.2013 	 13.6886 	 2.0343 	 26.3952 	 2.4811 	 43.3820 	 47.9807 	 16.9868 	 3.6000
  0.8000 	 1.3000 	 7.3243 	 13.5727 	 1.8981 	 28.9619 	 2.4037 	 45.6506 	 42.9485 	 16.6888 	 3.6000
  0.8000 	 1.4000 	 7.4297 	 13.4756 	 1.7797 	 31.6391 	 2.3405 	 47.7102 	 38.0138 	 16.0712 	 3.6000
  0.8000 	 1.5000 	 7.5211 	 13.3931 	 1.6758 	 34.4792 	 2.2882 	 49.5840 	 33.0825 	 15.1048 	 3.6000
  0.8000 	 1.0000 	 6.8283 	 14.2543 	 2.4391 	 21.3109 	 2.7546 	 37.6163 	 58.8684 	 16.3054 	 3.7000
  0.8000 	 1.1000 	 7.0075 	 14.0699 	 2.2460 	 23.7712 	 2.6292 	 40.3859 	 53.3930 	 16.6147 	 3.7000
  0.8000 	 1.2000 	 7.1569 	 13.9216 	 2.0831 	 26.2712 	 2.5298 	 42.8950 	 48.1544 	 16.6238 	 3.7000
  0.8000 	 1.3000 	 7.2833 	 13.7997 	 1.9437 	 28.8425 	 2.4496 	 45.1710 	 43.0842 	 16.3286 	 3.7000
  0.8000 	 1.4000 	 7.3916 	 13.6977 	 1.8226 	 31.5237 	 2.3840 	 47.2393 	 38.1051 	 15.7156 	 3.7000
  0.8000 	 1.5000 	 7.4855 	 13.6111 	 1.7164 	 34.3679 	 2.3298 	 49.1227 	 33.1209 	 14.7548 	 3.7000
  0.8000 	 1.0000 	 6.7750 	 14.5037 	 2.4961 	 21.1709 	 2.8108 	 37.1319 	 59.0900 	 15.9610 	 3.8000
  0.8000 	 1.1000 	 6.9591 	 14.3096 	 2.2984 	 23.6367 	 2.6812 	 39.9040 	 53.5883 	 16.2673 	 3.8000
  0.8000 	 1.2000 	 7.1125 	 14.1536 	 2.1317 	 26.1416 	 2.5783 	 42.4183 	 48.3180 	 16.2767 	 3.8000
  0.8000 	 1.3000 	 7.2423 	 14.0255 	 1.9891 	 28.7171 	 2.4953 	 44.7013 	 43.2104 	 15.9842 	 3.8000
  0.8000 	 1.4000 	 7.3536 	 13.9185 	 1.8653 	 31.4022 	 2.4274 	 46.7779 	 38.1874 	 15.3756 	 3.8000
  0.8000 	 1.5000 	 7.4500 	 13.8277 	 1.7567 	 34.2503 	 2.3712 	 48.6702 	 33.1506 	 14.4199 	 3.8000
  0.8000 	 1.0000 	 6.7217 	 14.7528 	 2.5529 	 21.0267 	 2.8669 	 36.6583 	 59.3010 	 15.6316 	 3.9000
  0.8000 	 1.1000 	 6.9106 	 14.5486 	 2.3506 	 23.4977 	 2.7331 	 39.4326 	 53.7738 	 15.9350 	 3.9000
  0.8000 	 1.2000 	 7.0681 	 14.3848 	 2.1802 	 26.0070 	 2.6267 	 41.9515 	 48.4724 	 15.9445 	 3.9000
  0.8000 	 1.3000 	 7.2013 	 14.2504 	 2.0343 	 28.5865 	 2.5408 	 44.2410 	 43.3280 	 15.6546 	 3.9000
  0.8000 	 1.4000 	 7.3155 	 14.1382 	 1.9079 	 31.2753 	 2.4706 	 46.3254 	 38.2615 	 15.0501 	 3.9000
  0.8000 	 1.5000 	 7.4145 	 14.0430 	 1.7969 	 34.1272 	 2.4124 	 48.2264 	 33.1725 	 14.0992 	 3.9000
  0.8000 	 1.0000 	 6.6684 	 15.0017 	 2.6096 	 20.8790 	 2.9229 	 36.1951 	 59.5022 	 15.3161 	 4.0000
  0.8000 	 1.1000 	 6.8622 	 14.7872 	 2.4027 	 23.3545 	 2.7848 	 38.9712 	 53.9501 	 15.6166 	 4.0000
  0.8000 	 1.2000 	 7.0237 	 14.6153 	 2.2284 	 25.8680 	 2.6749 	 41.4943 	 48.6182 	 15.6263 	 4.0000
  0.8000 	 1.3000 	 7.1603 	 14.4744 	 2.0794 	 28.4511 	 2.5862 	 43.7898 	 43.4376 	 15.3387 	 4.0000
  0.8000 	 1.4000 	 7.2774 	 14.3568 	 1.9502 	 31.1433 	 2.5136 	 45.8815 	 38.3282 	 14.7382 	 4.0000
  0.8000 	 1.5000 	 7.3789 	 14.2572 	 1.8369 	 33.9990 	 2.4534 	 47.7907 	 33.1873 	 13.7917 	 4.0000
  0.8000 	 1.0000 	 6.6151 	 15.2506 	 2.6662 	 20.7280 	 2.9789 	 35.7417 	 59.6944 	 15.0137 	 4.1000
  0.8000 	 1.1000 	 6.8138 	 15.0254 	 2.4546 	 23.2078 	 2.8364 	 38.5192 	 54.1179 	 15.3113 	 4.1000
  0.8000 	 1.2000 	 6.9793 	 14.8451 	 2.2766 	 25.7250 	 2.7231 	 41.0461 	 48.7561 	 15.3211 	 4.1000
  0.8000 	 1.3000 	 7.1193 	 14.6976 	 2.1243 	 28.3115 	 2.6315 	 43.3473 	 43.5399 	 15.0358 	 4.1000
  0.8000 	 1.4000 	 7.2394 	 14.5745 	 1.9923 	 31.0069 	 2.5565 	 45.4459 	 38.3880 	 14.4390 	 4.1000
  0.8000 	 1.5000 	 7.3434 	 14.4703 	 1.8767 	 33.8663 	 2.4943 	 47.3629 	 33.1956 	 13.4966 	 4.1000
  0.8000 	 1.0000 	 6.5618 	 15.4995 	 2.7226 	 20.5742 	 3.0347 	 35.2978 	 59.8781 	 14.7235 	 4.2000
  0.8000 	 1.1000 	 6.7653 	 15.2632 	 2.5064 	 23.0580 	 2.8879 	 38.0763 	 54.2778 	 15.0183 	 4.2000
  0.8000 	 1.2000 	 6.9349 	 15.0744 	 2.3245 	 25.5786 	 2.7710 	 40.6067 	 48.8868 	 15.0281 	 4.2000
  0.8000 	 1.3000 	 7.0783 	 14.9200 	 2.1690 	 28.1681 	 2.6766 	 42.9131 	 43.6355 	 14.7450 	 4.2000
  0.8000 	 1.4000 	 7.2013 	 14.7913 	 2.0343 	 30.8665 	 2.5992 	 45.0182 	 38.4417 	 14.1517 	 4.2000
  0.8000 	 1.5000 	 7.3079 	 14.6825 	 1.9163 	 33.7294 	 2.5350 	 46.9427 	 33.1981 	 13.2132 	 4.2000
  0.8000 	 1.0000 	 6.5086 	 15.7486 	 2.7789 	 20.4180 	 3.0904 	 34.8628 	 60.0539 	 14.4448 	 4.3000
  0.8000 	 1.1000 	 6.7169 	 15.5009 	 2.5581 	 22.9053 	 2.9393 	 37.6422 	 54.4304 	 14.7369 	 4.3000
  0.8000 	 1.2000 	 6.8905 	 15.3032 	 2.3723 	 25.4290 	 2.8189 	 40.1756 	 49.0107 	 14.7466 	 4.3000
  0.8000 	 1.3000 	 7.0373 	 15.1417 	 2.2136 	 28.0214 	 2.7216 	 42.4870 	 43.7248 	 14.4656 	 4.3000
  0.8000 	 1.4000 	 7.1633 	 15.0073 	 2.0762 	 30.7226 	 2.6418 	 44.5982 	 38.4897 	 13.8756 	 4.3000
  0.8000 	 1.5000 	 7.2724 	 14.8936 	 1.9558 	 33.5888 	 2.5756 	 46.5297 	 33.1953 	 12.9409 	 4.3000
  0.8000 	 1.0000 	 6.4553 	 15.9979 	 2.8351 	 20.2596 	 3.1461 	 34.4365 	 60.2223 	 14.1769 	 4.4000
  0.8000 	 1.1000 	 6.6684 	 15.7385 	 2.6096 	 22.7501 	 2.9906 	 37.2163 	 54.5761 	 14.4662 	 4.4000
  0.8000 	 1.2000 	 6.8461 	 15.5317 	 2.4200 	 25.2767 	 2.8667 	 39.7526 	 49.1282 	 14.4759 	 4.4000
  0.8000 	 1.3000 	 6.9964 	 15.3629 	 2.2581 	 27.8716 	 2.7664 	 42.0685 	 43.8085 	 14.1969 	 4.4000
  0.8000 	 1.4000 	 7.1252 	 15.2226 	 2.1179 	 30.5754 	 2.6842 	 44.1856 	 38.5325 	 13.6101 	 4.4000
  0.8000 	 1.5000 	 7.2368 	 15.1040 	 1.9951 	 33.4449 	 2.6160 	 46.1238 	 33.1877 	 12.6788 	 4.4000
  0.8000 	 1.0000 	 6.4020 	 16.2475 	 2.8912 	 20.0993 	 3.2016 	 34.0184 	 60.3837 	 13.9192 	 4.5000
  0.8000 	 1.1000 	 6.6200 	 15.9760 	 2.6611 	 22.5928 	 3.0418 	 36.7985 	 54.7154 	 14.2057 	 4.5000
  0.8000 	 1.2000 	 6.8016 	 15.7598 	 2.4676 	 25.1219 	 2.9143 	 39.3373 	 49.2400 	 14.2154 	 4.5000
  0.8000 	 1.3000 	 6.9554 	 15.5836 	 2.3024 	 27.7192 	 2.8112 	 41.6574 	 43.8869 	 13.9382 	 4.5000
  0.8000 	 1.4000 	 7.0871 	 15.4371 	 2.1594 	 30.4254 	 2.7265 	 43.7800 	 38.5705 	 13.3546 	 4.5000
  0.8000 	 1.5000 	 7.2013 	 15.3135 	 2.0343 	 33.2980 	 2.6563 	 45.7246 	 33.1757 	 12.4266 	 4.5000
  0.9000 	 1.0000 	 7.2546 	 12.2349 	 1.9010 	 19.7031 	 2.2996 	 41.9546 	 53.1149 	 22.2516 	 2.9000
  0.9000 	 1.1000 	 7.3951 	 12.1176 	 1.7429 	 22.0226 	 2.2077 	 44.6825 	 48.2532 	 22.6599 	 2.9000
  0.9000 	 1.2000 	 7.5122 	 12.0225 	 1.6087 	 24.4100 	 2.1351 	 47.1286 	 43.6572 	 22.7186 	 2.9000
  0.9000 	 1.3000 	 7.6112 	 11.9437 	 1.4929 	 26.8983 	 2.0768 	 49.3273 	 39.2651 	 22.4290 	 2.9000
  0.9000 	 1.4000 	 7.6961 	 11.8774 	 1.3916 	 29.5277 	 2.0294 	 51.3089 	 35.0129 	 21.7812 	 2.9000
  0.9000 	 1.5000 	 7.7697 	 11.8208 	 1.3019 	 32.3520 	 1.9903 	 53.1001 	 30.8287 	 20.7481 	 2.9000
  0.9000 	 1.0000 	 7.2013 	 12.4910 	 1.9602 	 19.7000 	 2.3571 	 41.3606 	 53.5074 	 21.6606 	 3.0000
  0.9000 	 1.1000 	 7.3467 	 12.3663 	 1.7978 	 22.0317 	 2.2610 	 44.0962 	 48.6225 	 22.0645 	 3.0000
  0.9000 	 1.2000 	 7.4678 	 12.2652 	 1.6600 	 24.4281 	 2.1851 	 46.5529 	 43.9989 	 22.1248 	 3.0000
  0.9000 	 1.3000 	 7.5702 	 12.1816 	 1.5411 	 26.9215 	 2.1242 	 48.7637 	 39.5757 	 21.8422 	 3.0000
  0.9000 	 1.4000 	 7.6581 	 12.1113 	 1.4373 	 29.5515 	 2.0746 	 50.7586 	 35.2892 	 21.2070 	 3.0000
  0.9000 	 1.5000 	 7.7342 	 12.0513 	 1.3455 	 32.3706 	 2.0337 	 52.5635 	 31.0672 	 20.1930 	 3.0000
  0.9000 	 1.0000 	 7.1480 	 12.7457 	 2.0192 	 19.6806 	 2.4143 	 40.7829 	 53.8761 	 21.1024 	 3.1000
  0.9000 	 1.1000 	 7.2982 	 12.6134 	 1.8522 	 22.0236 	 2.3142 	 43.5255 	 48.9681 	 21.5020 	 3.1000
  0.9000 	 1.2000 	 7.4234 	 12.5062 	 1.7108 	 24.4284 	 2.2350 	 45.9918 	 44.3170 	 21.5634 	 3.1000
  0.9000 	 1.3000 	 7.5293 	 12.4176 	 1.5889 	 26.9269 	 2.1714 	 48.2140 	 39.8626 	 21.2872 	 3.1000
  0.9000 	 1.4000 	 7.6200 	 12.3431 	 1.4826 	 29.5580 	 2.1195 	 50.2213 	 35.5414 	 20.6633 	 3.1000
  0.9000 	 1.5000 	 7.6987 	 12.2796 	 1.3886 	 32.3733 	 2.0768 	 52.0393 	 31.2807 	 19.6661 	 3.1000
  0.9000 	 1.0000 	 7.0947 	 12.9993 	 2.0778 	 19.6467 	 2.4714 	 40.2209 	 54.2231 	 20.5741 	 3.2000
  0.9000 	 1.1000 	 7.2498 	 12.8590 	 1.9064 	 22.0001 	 2.3671 	 42.9696 	 49.2923 	 20.9695 	 3.2000
  0.9000 	 1.2000 	 7.3789 	 12.7454 	 1.7613 	 24.4128 	 2.2846 	 45.4446 	 44.6139 	 21.0318 	 3.2000
  0.9000 	 1.3000 	 7.4883 	 12.6517 	 1.6364 	 26.9163 	 2.2183 	 47.6775 	 40.1283 	 20.7612 	 3.2000
  0.9000 	 1.4000 	 7.5820 	 12.5730 	 1.5274 	 29.5489 	 2.1642 	 49.6965 	 35.7720 	 20.1476 	 3.2000
  0.9000 	 1.5000 	 7.6632 	 12.5059 	 1.4313 	 32.3615 	 2.1195 	 51.5269 	 31.4720 	 19.1654 	 3.2000
  0.9000 	 1.0000 	 7.0414 	 13.2518 	 2.1361 	 19.6001 	 2.5283 	 39.6735 	 54.5503 	 20.0734 	 3.3000
  0.9000 	 1.1000 	 7.2013 	 13.1033 	 1.9602 	 21.9630 	 2.4199 	 42.4276 	 49.5971 	 20.4645 	 3.3000
  0.9000 	 1.2000 	 7.3345 	 12.9832 	 1.8114 	 24.3831 	 2.3340 	 44.9107 	 44.8916 	 20.5276 	 3.3000
  0.9000 	 1.3000 	 7.4473 	 12.8841 	 1.6835 	 26.8914 	 2.2649 	 47.1535 	 40.3748 	 20.2621 	 3.3000
  0.9000 	 1.4000 	 7.5439 	 12.8010 	 1.5719 	 29.5259 	 2.2086 	 49.1836 	 35.9832 	 19.6577 	 3.3000
  0.9000 	 1.5000 	 7.6276 	 12.7303 	 1.4735 	 32.3367 	 2.1620 	 51.0256 	 31.6434 	 18.6889 	 3.3000
  0.9000 	 1.0000 	 6.9882 	 13.5035 	 2.1942 	 19.5421 	 2.5851 	 39.1400 	 54.8595 	 19.5979 	 3.4000
  0.9000 	 1.1000 	 7.1529 	 13.3464 	 2.0138 	 21.9139 	 2.4725 	 41.8988 	 49.8841 	 19.9849 	 3.4000
  0.9000 	 1.2000 	 7.2901 	 13.2196 	 1.8613 	 24.3409 	 2.3832 	 44.3894 	 45.1517 	 20.0485 	 3.4000
  0.9000 	 1.3000 	 7.4063 	 13.1150 	 1.7302 	 26.8538 	 2.3114 	 46.6414 	 40.6039 	 19.7876 	 3.4000
  0.9000 	 1.4000 	 7.5058 	 13.0274 	 1.6161 	 29.4902 	 2.2527 	 48.6819 	 36.1771 	 19.1916 	 3.4000
  0.9000 	 1.5000 	 7.5921 	 12.9528 	 1.5155 	 32.3001 	 2.2043 	 50.5351 	 31.7971 	 18.2350 	 3.4000
  0.9000 	 1.0000 	 6.9349 	 13.7543 	 2.2520 	 19.4740 	 2.6417 	 38.6197 	 55.1522 	 19.1458 	 3.5000
  0.9000 	 1.1000 	 7.1044 	 13.5884 	 2.0671 	 21.8540 	 2.5249 	 41.3827 	 50.1549 	 19.5287 	 3.5000
  0.9000 	 1.2000 	 7.2457 	 13.4547 	 1.9109 	 24.2874 	 2.4322 	 43.8800 	 45.3960 	 19.5926 	 3.5000
  0.9000 	 1.3000 	 7.3653 	 13.3445 	 1.7767 	 26.8047 	 2.3576 	 46.1406 	 40.8173 	 19.3359 	 3.5000
  0.9000 	 1.4000 	 7.4678 	 13.2522 	 1.6600 	 29.4433 	 2.2967 	 48.1909 	 36.3552 	 18.7476 	 3.5000
  0.9000 	 1.5000 	 7.5566 	 13.1738 	 1.5571 	 32.2526 	 2.2464 	 50.0547 	 31.9348 	 17.8021 	 3.5000
  0.9000 	 1.0000 	 6.8816 	 14.0046 	 2.3097 	 19.3968 	 2.6982 	 38.1120 	 55.4296 	 18.7152 	 3.6000
  0.9000 	 1.1000 	 7.0560 	 13.8296 	 2.1202 	 21.7845 	 2.5771 	 40.8786 	 50.4108 	 19.0941 	 3.6000
  0.9000 	 1.2000 	 7.2013 	 13.6886 	 1.9602 	 24.2238 	 2.4811 	 43.3820 	 45.6257 	 19.1582 	 3.6000
  0.9000 	 1.3000 	 7.3243 	 13.5727 	 1.8230 	 26.7453 	 2.4037 	 45.6506 	 41.0164 	 18.9053 	 3.6000
  0.9000 	 1.4000 	 7.4297 	 13.4756 	 1.7035 	 29.3860 	 2.3405 	 47.7102 	 36.5191 	 18.3242 	 3.6000
  0.9000 	 1.5000 	 7.5211 	 13.3931 	 1.5985 	 32.1954 	 2.2882 	 49.5840 	 32.0582 	 17.3887 	 3.6000
  0.9000 	 1.0000 	 6.8283 	 14.2543 	 2.3671 	 19.3117 	 2.7546 	 37.6163 	 55.6929 	 18.3046 	 3.7000
  0.9000 	 1.1000 	 7.0075 	 14.0699 	 2.1731 	 21.7063 	 2.6292 	 40.3859 	 50.6530 	 18.6795 	 3.7000
  0.9000 	 1.2000 	 7.1569 	 13.9216 	 2.0094 	 24.1512 	 2.5298 	 42.8950 	 45.8421 	 18.7437 	 3.7000
  0.9000 	 1.3000 	 7.2833 	 13.7997 	 1.8689 	 26.6767 	 2.4496 	 45.1710 	 41.2024 	 18.4944 	 3.7000
  0.9000 	 1.4000 	 7.3916 	 13.6977 	 1.7469 	 29.3196 	 2.3840 	 47.2393 	 36.6701 	 17.9198 	 3.7000
  0.9000 	 1.5000 	 7.4855 	 13.6111 	 1.6395 	 32.1292 	 2.3298 	 49.1227 	 32.1685 	 16.9935 	 3.7000
  0.9000 	 1.0000 	 6.7750 	 14.5037 	 2.4243 	 19.2193 	 2.8108 	 37.1319 	 55.9433 	 17.9126 	 3.8000
  0.9000 	 1.1000 	 6.9591 	 14.3096 	 2.2258 	 21.6204 	 2.6812 	 39.9040 	 50.8827 	 18.2836 	 3.8000
  0.9000 	 1.2000 	 7.1125 	 14.1536 	 2.0583 	 24.0705 	 2.5783 	 42.4183 	 46.0463 	 18.3478 	 3.8000
  0.9000 	 1.3000 	 7.2423 	 14.0255 	 1.9147 	 26.5996 	 2.4953 	 44.7013 	 41.3766 	 18.1017 	 3.8000
  0.9000 	 1.4000 	 7.3536 	 13.9185 	 1.7900 	 29.2447 	 2.4274 	 46.7779 	 36.8094 	 17.5331 	 3.8000
  0.9000 	 1.5000 	 7.4500 	 13.8277 	 1.6803 	 32.0549 	 2.3712 	 48.6702 	 32.2671 	 16.6153 	 3.8000
  0.9000 	 1.0000 	 6.7217 	 14.7528 	 2.4814 	 19.1204 	 2.8669 	 36.6583 	 56.1816 	 17.5379 	 3.9000
  0.9000 	 1.1000 	 6.9106 	 14.5486 	 2.2783 	 21.5276 	 2.7331 	 39.4326 	 51.1007 	 17.9050 	 3.9000
  0.9000 	 1.2000 	 7.0681 	 14.3848 	 2.1070 	 23.9824 	 2.6267 	 41.9515 	 46.2392 	 17.9691 	 3.9000
  0.9000 	 1.3000 	 7.2013 	 14.2504 	 1.9602 	 26.5151 	 2.5408 	 44.2410 	 41.5398 	 17.7260 	 3.9000
  0.9000 	 1.4000 	 7.3155 	 14.1382 	 1.8328 	 29.1623 	 2.4706 	 46.3254 	 36.9380 	 17.1631 	 3.9000
  0.9000 	 1.5000 	 7.4145 	 14.0430 	 1.7209 	 31.9733 	 2.4124 	 48.2264 	 32.3550 	 16.2531 	 3.9000
  0.9000 	 1.0000 	 6.6684 	 15.0017 	 2.5383 	 19.0158 	 2.9229 	 36.1951 	 56.4088 	 17.1793 	 4.0000
  0.9000 	 1.1000 	 6.8622 	 14.7872 	 2.3306 	 21.4285 	 2.7848 	 38.9712 	 51.3080 	 17.5426 	 4.0000
  0.9000 	 1.2000 	 7.0237 	 14.6153 	 2.1555 	 23.8878 	 2.6749 	 41.4943 	 46.4217 	 17.6065 	 4.0000
  0.9000 	 1.3000 	 7.1603 	 14.4744 	 2.0056 	 26.4237 	 2.5862 	 43.7898 	 41.6929 	 17.3662 	 4.0000
  0.9000 	 1.4000 	 7.2774 	 14.3568 	 1.8755 	 29.0729 	 2.5136 	 45.8815 	 37.0567 	 16.8086 	 4.0000
  0.9000 	 1.5000 	 7.3789 	 14.2572 	 1.7613 	 31.8849 	 2.4534 	 47.7907 	 32.4333 	 15.9058 	 4.0000
  0.9000 	 1.6000 	 7.4678 	 14.1718 	 1.6600 	 34.9332 	 2.4031 	 49.5368 	 27.7121 	 14.6037 	 4.0000
  0.9000 	 1.0000 	 6.6151 	 15.2506 	 2.5950 	 18.9060 	 2.9789 	 35.7417 	 56.6256 	 16.8357 	 4.1000
  0.9000 	 1.1000 	 6.8138 	 15.0254 	 2.3827 	 21.3239 	 2.8364 	 38.5192 	 51.5053 	 17.1953 	 4.1000
  0.9000 	 1.2000 	 6.9793 	 14.8451 	 2.2038 	 23.7872 	 2.7231 	 41.0461 	 46.5947 	 17.2589 	 4.1000
  0.9000 	 1.3000 	 7.1193 	 14.6976 	 2.0508 	 26.3261 	 2.6315 	 43.3473 	 41.8369 	 17.0212 	 4.1000
  0.9000 	 1.4000 	 7.2394 	 14.5745 	 1.9180 	 28.9773 	 2.5565 	 45.4459 	 37.1665 	 16.4686 	 4.1000
  0.9000 	 1.5000 	 7.3434 	 14.4703 	 1.8014 	 31.7903 	 2.4943 	 47.3629 	 32.5026 	 15.5725 	 4.1000
  0.9000 	 1.6000 	 7.4345 	 14.3810 	 1.6981 	 34.8393 	 2.4423 	 49.1174 	 27.7320 	 14.2781 	 4.1000
  0.9000 	 1.0000 	 6.5618 	 15.4995 	 2.6516 	 18.7915 	 3.0347 	 35.2978 	 56.8327 	 16.5062 	 4.2000
  0.9000 	 1.1000 	 6.7653 	 15.2632 	 2.4347 	 21.2141 	 2.8879 	 38.0763 	 51.6932 	 16.8622 	 4.2000
  0.9000 	 1.2000 	 6.9349 	 15.0744 	 2.2520 	 23.6812 	 2.7710 	 40.6067 	 46.7587 	 16.9255 	 4.2000
  0.9000 	 1.3000 	 7.0783 	 14.9200 	 2.0958 	 26.2230 	 2.6766 	 42.9131 	 41.9723 	 16.6902 	 4.2000
  0.9000 	 1.4000 	 7.2013 	 14.7913 	 1.9602 	 28.8760 	 2.5992 	 45.0182 	 37.2681 	 16.1422 	 4.2000
  0.9000 	 1.5000 	 7.3079 	 14.6825 	 1.8414 	 31.6902 	 2.5350 	 46.9427 	 32.5640 	 15.2525 	 4.2000
  0.9000 	 1.6000 	 7.4012 	 14.5892 	 1.7361 	 34.7401 	 2.4813 	 48.7052 	 27.7437 	 13.9651 	 4.2000
  0.9000 	 1.0000 	 6.5086 	 15.7486 	 2.7081 	 18.6728 	 3.0904 	 34.8628 	 57.0308 	 16.1900 	 4.3000
  0.9000 	 1.1000 	 6.7169 	 15.5009 	 2.4865 	 21.0999 	 2.9393 	 37.6422 	 51.8726 	 16.5423 	 4.3000
  0.9000 	 1.2000 	 6.8905 	 15.3032 	 2.3001 	 23.5704 	 2.8189 	 40.1756 	 46.9146 	 16.6052 	 4.3000
  0.9000 	 1.3000 	 7.0373 	 15.1417 	 2.1406 	 26.1147 	 2.7216 	 42.4870 	 42.0998 	 16.3722 	 4.3000
  0.9000 	 1.4000 	 7.1633 	 15.0073 	 2.0024 	 28.7696 	 2.6418 	 44.5982 	 37.3622 	 15.8286 	 4.3000
  0.9000 	 1.5000 	 7.2724 	 14.8936 	 1.8812 	 31.5849 	 2.5756 	 46.5297 	 32.6179 	 14.9448 	 4.3000
  0.9000 	 1.6000 	 7.3678 	 14.7963 	 1.7738 	 34.6360 	 2.5201 	 48.2999 	 27.7480 	 13.6639 	 4.3000
  0.9000 	 1.0000 	 6.4553 	 15.9979 	 2.7644 	 18.5504 	 3.1461 	 34.4365 	 57.2205 	 15.8861 	 4.4000
  0.9000 	 1.1000 	 6.6684 	 15.7385 	 2.5383 	 20.9815 	 2.9906 	 37.2163 	 52.0439 	 16.2349 	 4.4000
  0.9000 	 1.2000 	 6.8461 	 15.5317 	 2.3480 	 23.4553 	 2.8667 	 39.7526 	 47.0627 	 16.2974 	 4.4000
  0.9000 	 1.3000 	 6.9964 	 15.3629 	 2.1853 	 26.0019 	 2.7664 	 42.0685 	 42.2201 	 16.0666 	 4.4000
  0.9000 	 1.4000 	 7.1252 	 15.2226 	 2.0443 	 28.6585 	 2.6842 	 44.1856 	 37.4492 	 15.5271 	 4.4000
  0.9000 	 1.5000 	 7.2368 	 15.1040 	 1.9208 	 31.4749 	 2.6160 	 46.1238 	 32.6651 	 14.6489 	 4.4000
  0.9000 	 1.6000 	 7.3345 	 15.0025 	 1.8114 	 34.5274 	 2.5588 	 47.9013 	 27.7454 	 13.3739 	 4.4000
  0.9000 	 1.0000 	 6.4020 	 16.2475 	 2.8206 	 18.4245 	 3.2016 	 34.0184 	 57.4023 	 15.5939 	 4.5000
  0.9000 	 1.1000 	 6.6200 	 15.9760 	 2.5898 	 20.8594 	 3.0418 	 36.7985 	 52.2077 	 15.9392 	 4.5000
  0.9000 	 1.2000 	 6.8016 	 15.7598 	 2.3957 	 23.3361 	 2.9143 	 39.3373 	 47.2038 	 16.0012 	 4.5000
  0.9000 	 1.3000 	 6.9554 	 15.5836 	 2.2298 	 25.8850 	 2.8112 	 41.6574 	 42.3336 	 15.7724 	 4.5000
  0.9000 	 1.4000 	 7.0871 	 15.4371 	 2.0861 	 28.5430 	 2.7265 	 43.7800 	 37.5299 	 15.2369 	 4.5000
  0.9000 	 1.5000 	 7.2013 	 15.3135 	 1.9602 	 31.3607 	 2.6563 	 45.7246 	 32.7061 	 14.3639 	 4.5000
  0.9000 	 1.6000 	 7.3012 	 15.2078 	 1.8489 	 34.4148 	 2.5974 	 47.5092 	 27.7367 	 13.0944 	 4.5000
  1.0000 	 1.0000 	 7.2546 	 12.2349 	 1.8214 	 17.1750 	 2.2996 	 41.9546 	 49.7649 	 24.7796 	 2.9000
  1.0000 	 1.1000 	 7.3951 	 12.1176 	 1.6618 	 19.4146 	 2.2077 	 44.6825 	 45.1808 	 25.2679 	 2.9000
  1.0000 	 1.2000 	 7.5122 	 12.0225 	 1.5259 	 21.7476 	 2.1351 	 47.1286 	 40.8482 	 25.3810 	 2.9000
  1.0000 	 1.3000 	 7.6112 	 11.9437 	 1.4083 	 24.2111 	 2.0768 	 49.3273 	 36.7095 	 25.1162 	 2.9000
  1.0000 	 1.4000 	 7.6961 	 11.8774 	 1.3050 	 26.8516 	 2.0294 	 51.3089 	 32.7043 	 24.4573 	 2.9000
  1.0000 	 1.5000 	 7.7697 	 11.8208 	 1.2132 	 29.7322 	 1.9903 	 53.1001 	 28.7648 	 23.3679 	 2.9000
  1.0000 	 1.6000 	 7.8341 	 11.7720 	 1.1308 	 32.9454 	 1.9578 	 54.7242 	 24.8053 	 21.7788 	 2.9000
  1.0000 	 1.0000 	 7.2013 	 12.4910 	 1.8811 	 17.2526 	 2.3571 	 41.3606 	 50.2073 	 24.1080 	 3.0000
  1.0000 	 1.1000 	 7.3467 	 12.3663 	 1.7172 	 19.5059 	 2.2610 	 44.0962 	 45.6081 	 24.5903 	 3.0000
  1.0000 	 1.2000 	 7.4678 	 12.2652 	 1.5778 	 21.8478 	 2.1851 	 46.5529 	 41.2570 	 24.7051 	 3.0000
  1.0000 	 1.3000 	 7.5702 	 12.1816 	 1.4573 	 24.3137 	 2.1242 	 48.7637 	 37.0976 	 24.4501 	 3.0000
  1.0000 	 1.4000 	 7.6581 	 12.1113 	 1.3516 	 26.9484 	 2.0746 	 50.7586 	 33.0703 	 23.8101 	 3.0000
  1.0000 	 1.5000 	 7.7342 	 12.0513 	 1.2579 	 29.8122 	 2.0337 	 52.5635 	 29.1079 	 22.7514 	 3.0000
  1.0000 	 1.6000 	 7.8008 	 11.9996 	 1.1737 	 32.9929 	 1.9996 	 54.2015 	 25.1257 	 21.2086 	 3.0000
  1.0000 	 1.0000 	 7.1480 	 12.7457 	 1.9405 	 17.3085 	 2.4143 	 40.7829 	 50.6224 	 23.4744 	 3.1000
  1.0000 	 1.1000 	 7.2982 	 12.6134 	 1.7722 	 19.5746 	 2.3142 	 43.5255 	 46.0077 	 23.9509 	 3.1000
  1.0000 	 1.2000 	 7.4234 	 12.5062 	 1.6293 	 21.9248 	 2.2350 	 45.9918 	 41.6376 	 24.0670 	 3.1000
  1.0000 	 1.3000 	 7.5293 	 12.4176 	 1.5058 	 24.3935 	 2.1714 	 48.2140 	 37.4565 	 23.8205 	 3.1000
  1.0000 	 1.4000 	 7.6200 	 12.3431 	 1.3977 	 27.0239 	 2.1195 	 50.2213 	 33.4058 	 23.1974 	 3.1000
  1.0000 	 1.5000 	 7.6987 	 12.2796 	 1.3019 	 29.8739 	 2.0768 	 52.0393 	 29.4187 	 22.1654 	 3.1000
  1.0000 	 1.6000 	 7.7675 	 12.2249 	 1.2161 	 33.0277 	 2.0411 	 53.6906 	 25.4109 	 20.6628 	 3.1000
  1.0000 	 1.0000 	 7.0947 	 12.9993 	 1.9995 	 17.3452 	 2.4714 	 40.2209 	 51.0125 	 22.8757 	 3.2000
  1.0000 	 1.1000 	 7.2498 	 12.8590 	 1.8268 	 19.6232 	 2.3671 	 42.9696 	 46.3821 	 23.3464 	 3.2000
  1.0000 	 1.2000 	 7.3789 	 12.7454 	 1.6803 	 21.9812 	 2.2846 	 45.4446 	 41.9926 	 23.4634 	 3.2000
  1.0000 	 1.3000 	 7.4883 	 12.6517 	 1.5539 	 24.4530 	 2.2183 	 47.6775 	 37.7893 	 23.2245 	 3.2000
  1.0000 	 1.4000 	 7.5820 	 12.5730 	 1.4433 	 27.0802 	 2.1642 	 49.6965 	 33.7142 	 22.6163 	 3.2000
  1.0000 	 1.5000 	 7.6632 	 12.5059 	 1.3455 	 29.9189 	 2.1195 	 51.5269 	 29.7008 	 21.6080 	 3.2000
  1.0000 	 1.6000 	 7.7342 	 12.4481 	 1.2579 	 33.0503 	 2.0823 	 53.1907 	 25.6651 	 20.1405 	 3.2000
  1.0000 	 1.0000 	 7.0414 	 13.2518 	 2.0582 	 17.3647 	 2.5283 	 39.6735 	 51.3801 	 22.3087 	 3.3000
  1.0000 	 1.1000 	 7.2013 	 13.1033 	 1.8811 	 19.6538 	 2.4199 	 42.4276 	 46.7338 	 22.7738 	 3.3000
  1.0000 	 1.2000 	 7.3345 	 12.9832 	 1.7310 	 22.0193 	 2.3340 	 44.9107 	 42.3246 	 22.8914 	 3.3000
  1.0000 	 1.3000 	 7.4473 	 12.8841 	 1.6016 	 24.4942 	 2.2649 	 47.1535 	 38.0986 	 22.6593 	 3.3000
  1.0000 	 1.4000 	 7.5439 	 12.8010 	 1.4885 	 27.1191 	 2.2086 	 49.1836 	 33.9983 	 22.0644 	 3.3000
  1.0000 	 1.5000 	 7.6276 	 12.7303 	 1.3885 	 29.9485 	 2.1620 	 51.0256 	 29.9575 	 21.0772 	 3.3000
  1.0000 	 1.6000 	 7.7009 	 12.6693 	 1.2992 	 33.0610 	 2.1232 	 52.7015 	 25.8918 	 19.6405 	 3.3000
  1.0000 	 1.0000 	 6.9882 	 13.5035 	 2.1167 	 17.3690 	 2.5851 	 39.1400 	 51.7271 	 21.7710 	 3.4000
  1.0000 	 1.1000 	 7.1529 	 13.3464 	 1.9351 	 19.6683 	 2.4725 	 41.8988 	 47.0648 	 22.2306 	 3.4000
  1.0000 	 1.2000 	 7.2901 	 13.2196 	 1.7813 	 22.0408 	 2.3832 	 44.3894 	 42.6357 	 22.3485 	 3.4000
  1.0000 	 1.3000 	 7.4063 	 13.1150 	 1.6489 	 24.5189 	 2.3114 	 46.6414 	 38.3867 	 22.1224 	 3.4000
  1.0000 	 1.4000 	 7.5058 	 13.0274 	 1.5333 	 27.1423 	 2.2527 	 48.6819 	 34.2606 	 21.5396 	 3.4000
  1.0000 	 1.5000 	 7.5921 	 12.9528 	 1.4312 	 29.9640 	 2.2043 	 50.5351 	 30.1913 	 20.5711 	 3.4000
  1.0000 	 1.6000 	 7.6676 	 12.8886 	 1.3400 	 33.0607 	 2.1639 	 52.2224 	 26.0942 	 19.1617 	 3.4000
  1.0000 	 1.0000 	 6.9349 	 13.7543 	 2.1748 	 17.3596 	 2.6417 	 38.6197 	 52.0551 	 21.2602 	 3.5000
  1.0000 	 1.1000 	 7.1044 	 13.5884 	 1.9888 	 19.6684 	 2.5249 	 41.3827 	 47.3769 	 21.7143 	 3.5000
  1.0000 	 1.2000 	 7.2457 	 13.4547 	 1.8314 	 22.0476 	 2.4322 	 43.8800 	 42.9279 	 21.8324 	 3.5000
  1.0000 	 1.3000 	 7.3653 	 13.3445 	 1.6959 	 24.5289 	 2.3576 	 46.1406 	 38.6556 	 21.6117 	 3.5000
  1.0000 	 1.4000 	 7.4678 	 13.2522 	 1.5778 	 27.1512 	 2.2967 	 48.1909 	 34.5032 	 21.0397 	 3.5000
  1.0000 	 1.5000 	 7.5566 	 13.1738 	 1.4735 	 29.9665 	 2.2464 	 50.0547 	 30.4046 	 20.0882 	 3.5000
  1.0000 	 1.6000 	 7.6343 	 13.1062 	 1.3805 	 33.0500 	 2.2043 	 51.7529 	 26.2747 	 18.7030 	 3.5000
  1.0000 	 1.0000 	 6.8816 	 14.0046 	 2.2328 	 17.3379 	 2.6982 	 38.1120 	 52.3658 	 20.7742 	 3.6000
  1.0000 	 1.1000 	 7.0560 	 13.8296 	 2.0423 	 19.6555 	 2.5771 	 40.8786 	 47.6717 	 21.2231 	 3.6000
  1.0000 	 1.2000 	 7.2013 	 13.6886 	 1.8811 	 22.0410 	 2.4811 	 43.3820 	 43.2027 	 21.3411 	 3.6000
  1.0000 	 1.3000 	 7.3243 	 13.5727 	 1.7426 	 24.5254 	 2.4037 	 45.6506 	 38.9070 	 21.1252 	 3.6000
  1.0000 	 1.4000 	 7.4297 	 13.4756 	 1.6219 	 27.1472 	 2.3405 	 47.7102 	 34.7281 	 20.5630 	 3.6000
  1.0000 	 1.5000 	 7.5211 	 13.3931 	 1.5155 	 29.9572 	 2.2882 	 49.5840 	 30.5995 	 19.6268 	 3.6000
  1.0000 	 1.6000 	 7.6010 	 13.3222 	 1.4206 	 33.0294 	 2.2445 	 51.2927 	 26.4356 	 18.2633 	 3.6000
  1.0000 	 1.0000 	 6.8283 	 14.2543 	 2.2904 	 17.3052 	 2.7546 	 37.6163 	 52.6605 	 20.3111 	 3.7000
  1.0000 	 1.1000 	 7.0075 	 14.0699 	 2.0955 	 19.6310 	 2.6292 	 40.3859 	 47.9506 	 20.7548 	 3.7000
  1.0000 	 1.2000 	 7.1569 	 13.9216 	 1.9306 	 22.0223 	 2.5298 	 42.8950 	 43.4617 	 20.8726 	 3.7000
  1.0000 	 1.3000 	 7.2833 	 13.7997 	 1.7891 	 24.5099 	 2.4496 	 45.1710 	 39.1426 	 20.6612 	 3.7000
  1.0000 	 1.4000 	 7.3916 	 13.6977 	 1.6658 	 27.1313 	 2.3840 	 47.2393 	 34.9367 	 20.1080 	 3.7000
  1.0000 	 1.5000 	 7.4855 	 13.6111 	 1.5571 	 29.9370 	 2.3298 	 49.1227 	 30.7778 	 19.1857 	 3.7000
  1.0000 	 1.6000 	 7.5677 	 13.5367 	 1.4603 	 32.9997 	 2.2844 	 50.8414 	 26.5789 	 17.8417 	 3.7000
  1.0000 	 1.0000 	 6.7750 	 14.5037 	 2.3479 	 17.2625 	 2.8108 	 37.1319 	 52.9404 	 19.8694 	 3.8000
  1.0000 	 1.1000 	 6.9591 	 14.3096 	 2.1484 	 19.5960 	 2.6812 	 39.9040 	 48.2149 	 20.3080 	 3.8000
  1.0000 	 1.2000 	 7.1125 	 14.1536 	 1.9799 	 21.9928 	 2.5783 	 42.4183 	 43.7062 	 20.4255 	 3.8000
  1.0000 	 1.3000 	 7.2423 	 14.0255 	 1.8352 	 24.4833 	 2.4953 	 44.7013 	 39.3635 	 20.2180 	 3.8000
  1.0000 	 1.4000 	 7.3536 	 13.9185 	 1.7093 	 27.1048 	 2.4274 	 46.7779 	 35.1307 	 19.6731 	 3.8000
  1.0000 	 1.5000 	 7.4500 	 13.8277 	 1.5984 	 29.9068 	 2.3712 	 48.6702 	 30.9409 	 18.7634 	 3.8000
  1.0000 	 1.6000 	 7.5344 	 13.7497 	 1.4998 	 32.9615 	 2.3242 	 50.3985 	 26.7064 	 17.4370 	 3.8000
  1.0000 	 1.0000 	 6.7217 	 14.7528 	 2.4052 	 17.2109 	 2.8669 	 36.6583 	 53.2067 	 19.4475 	 3.9000
  1.0000 	 1.1000 	 6.9106 	 14.5486 	 2.2012 	 19.5515 	 2.7331 	 39.4326 	 48.4657 	 19.8811 	 3.9000
  1.0000 	 1.2000 	 7.0681 	 14.3848 	 2.0289 	 21.9534 	 2.6267 	 41.9515 	 43.9373 	 19.9981 	 3.9000
  1.0000 	 1.3000 	 7.2013 	 14.2504 	 1.8811 	 24.4468 	 2.5408 	 44.2410 	 39.5712 	 19.7943 	 3.9000
  1.0000 	 1.4000 	 7.3155 	 14.1382 	 1.7526 	 27.0684 	 2.4706 	 46.3254 	 35.3112 	 19.2569 	 3.9000
  1.0000 	 1.5000 	 7.4145 	 14.0430 	 1.6395 	 29.8675 	 2.4124 	 48.2264 	 31.0903 	 18.3589 	 3.9000
  1.0000 	 1.6000 	 7.5011 	 13.9613 	 1.5389 	 32.9153 	 2.3637 	 49.9638 	 26.8195 	 17.0484 	 3.9000
  1.0000 	 1.0000 	 6.6684 	 15.0017 	 2.4623 	 17.1511 	 2.9229 	 36.1951 	 53.4604 	 19.0440 	 4.0000
  1.0000 	 1.1000 	 6.8622 	 14.7872 	 2.2538 	 19.4984 	 2.7848 	 38.9712 	 48.7040 	 19.4728 	 4.0000
  1.0000 	 1.2000 	 7.0237 	 14.6153 	 2.0778 	 21.9051 	 2.6749 	 41.4943 	 44.1560 	 19.5892 	 4.0000
  1.0000 	 1.3000 	 7.1603 	 14.4744 	 1.9268 	 24.4012 	 2.5862 	 43.7898 	 39.7666 	 19.3887 	 4.0000
  1.0000 	 1.4000 	 7.2774 	 14.3568 	 1.7957 	 27.0231 	 2.5136 	 45.8815 	 35.4795 	 18.8583 	 4.0000
  1.0000 	 1.5000 	 7.3789 	 14.2572 	 1.6803 	 29.8197 	 2.4534 	 47.7907 	 31.2272 	 17.9710 	 4.0000
  1.0000 	 1.6000 	 7.4678 	 14.1718 	 1.5778 	 32.8618 	 2.4031 	 49.5368 	 26.9195 	 16.6750 	 4.0000
  1.0000 	 1.0000 	 6.6151 	 15.2506 	 2.5193 	 17.0840 	 2.9789 	 35.7417 	 53.7024 	 18.6577 	 4.1000
  1.0000 	 1.1000 	 6.8138 	 15.0254 	 2.3061 	 19.4375 	 2.8364 	 38.5192 	 48.9308 	 19.0817 	 4.1000
  1.0000 	 1.2000 	 6.9793 	 14.8451 	 2.1264 	 21.8487 	 2.7231 	 41.0461 	 44.3634 	 19.1975 	 4.1000
  1.0000 	 1.3000 	 7.1193 	 14.6976 	 1.9723 	 24.3473 	 2.6315 	 43.3473 	 39.9507 	 19.0000 	 4.1000
  1.0000 	 1.4000 	 7.2394 	 14.5745 	 1.8385 	 26.9697 	 2.5565 	 45.4459 	 35.6365 	 18.4762 	 4.1000
  1.0000 	 1.5000 	 7.3434 	 14.4703 	 1.7209 	 29.7642 	 2.4943 	 47.3629 	 31.3527 	 17.5987 	 4.1000
  1.0000 	 1.6000 	 7.4345 	 14.3810 	 1.6164 	 32.8014 	 2.4423 	 49.1174 	 27.0078 	 16.3160 	 4.1000
  1.0000 	 1.0000 	 6.5618 	 15.4995 	 2.5761 	 17.0103 	 3.0347 	 35.2978 	 53.9334 	 18.2875 	 4.2000
  1.0000 	 1.1000 	 6.7653 	 15.2632 	 2.3584 	 19.3695 	 2.8879 	 38.0763 	 49.1468 	 18.7068 	 4.2000
  1.0000 	 1.2000 	 6.9349 	 15.0744 	 2.1748 	 21.7848 	 2.7710 	 40.6067 	 44.5603 	 18.8219 	 4.2000
  1.0000 	 1.3000 	 7.0783 	 14.9200 	 2.0176 	 24.2859 	 2.6766 	 42.9131 	 40.1245 	 18.6272 	 4.2000
  1.0000 	 1.4000 	 7.2013 	 14.7913 	 1.8811 	 26.9088 	 2.5992 	 45.0182 	 35.7832 	 18.1095 	 4.2000
  1.0000 	 1.5000 	 7.3079 	 14.6825 	 1.7612 	 29.7015 	 2.5350 	 46.9427 	 31.4678 	 17.2411 	 4.2000
  1.0000 	 1.6000 	 7.4012 	 14.5892 	 1.6548 	 32.7346 	 2.4813 	 48.7052 	 27.0852 	 15.9706 	 4.2000
  1.0000 	 1.0000 	 6.5086 	 15.7486 	 2.6327 	 16.9305 	 3.0904 	 34.8628 	 54.1542 	 17.9323 	 4.3000
  1.0000 	 1.1000 	 6.7169 	 15.5009 	 2.4104 	 19.2950 	 2.9393 	 37.6422 	 49.3529 	 18.3471 	 4.3000
  1.0000 	 1.2000 	 6.8905 	 15.3032 	 2.2231 	 21.7143 	 2.8189 	 40.1756 	 44.7474 	 18.4614 	 4.3000
  1.0000 	 1.3000 	 7.0373 	 15.1417 	 2.0627 	 24.2176 	 2.7216 	 42.4870 	 40.2887 	 18.2693 	 4.3000
  1.0000 	 1.4000 	 7.1633 	 15.0073 	 1.9236 	 26.8410 	 2.6418 	 44.5982 	 35.9204 	 17.7572 	 4.3000
  1.0000 	 1.5000 	 7.2724 	 14.8936 	 1.8014 	 29.6323 	 2.5756 	 46.5297 	 31.5733 	 16.8974 	 4.3000
  1.0000 	 1.6000 	 7.3678 	 14.7963 	 1.6930 	 32.6619 	 2.5201 	 48.2999 	 27.1528 	 15.6380 	 4.3000
  1.0000 	 1.0000 	 6.4553 	 15.9979 	 2.6892 	 16.8452 	 3.1461 	 34.4365 	 54.3655 	 17.5913 	 4.4000
  1.0000 	 1.1000 	 6.6684 	 15.7385 	 2.4623 	 19.2148 	 2.9906 	 37.2163 	 49.5497 	 18.0016 	 4.4000
  1.0000 	 1.2000 	 6.8461 	 15.5317 	 2.2712 	 21.6376 	 2.8667 	 39.7526 	 44.9255 	 18.1150 	 4.4000
  1.0000 	 1.3000 	 6.9964 	 15.3629 	 2.1077 	 24.1431 	 2.7664 	 42.0685 	 40.4440 	 17.9254 	 4.4000
  1.0000 	 1.4000 	 7.1252 	 15.2226 	 1.9658 	 26.7670 	 2.6842 	 44.1856 	 36.0489 	 17.4186 	 4.4000
  1.0000 	 1.5000 	 7.2368 	 15.1040 	 1.8414 	 29.5571 	 2.6160 	 46.1238 	 31.6701 	 16.5667 	 4.4000
  1.0000 	 1.6000 	 7.3345 	 15.0025 	 1.7310 	 32.5837 	 2.5588 	 47.9013 	 27.2113 	 15.3176 	 4.4000
  1.0000 	 1.0000 	 6.4020 	 16.2475 	 2.7456 	 16.7549 	 3.2016 	 34.0184 	 54.5680 	 17.2635 	 4.5000
  1.0000 	 1.1000 	 6.6200 	 15.9760 	 2.5141 	 19.1291 	 3.0418 	 36.7985 	 49.7378 	 17.6694 	 4.5000
  1.0000 	 1.2000 	 6.8016 	 15.7598 	 2.3192 	 21.5553 	 2.9143 	 39.3373 	 45.0951 	 17.7820 	 4.5000
  1.0000 	 1.3000 	 6.9554 	 15.5836 	 2.1525 	 24.0628 	 2.8112 	 41.6574 	 40.5911 	 17.5946 	 4.5000
  1.0000 	 1.4000 	 7.0871 	 15.4371 	 2.0079 	 26.6872 	 2.7265 	 43.7800 	 36.1692 	 17.0928 	 4.5000
  1.0000 	 1.5000 	 7.2013 	 15.3135 	 1.8811 	 29.4763 	 2.6563 	 45.7246 	 31.7588 	 16.2483 	 4.5000
  1.0000 	 1.6000 	 7.3012 	 15.2078 	 1.7688 	 32.5004 	 2.5974 	 47.5092 	 27.2617 	 15.0088 	 4.5000
