# d(e,e'p)n Central Kinematics Summary
# Beam Energy (Ei) = 4.400 GeV
# 4-Momentum Transfer (Q2) = 2.90 - 4.50 GeV (step: 0.10) 
# x-Bjorken (xbj) = 1.00 - 2.10 (step: 0.10) 
# Missing Momentum (Pr) = 0.00 - 1.10 GeV (step: 0.10) 
# Hadron Out-of-Plane Angle (phi) = 180 deg 
# thp = thq + thpq, phi = 180 ?  (q-vector scatters at smaller  angles than proton scattering angle)# 
# # 
# Tensor Polarized Deuterium: d(e,e'p) kinematics :
# 
# Header Definitions: 
# Pr   : Central Missing Momentum [GeV/c] 
# xbj  : Bjorken x  
# kf   : e- final momentum [GeV/c] 
# th_e : e- scattering angle [deg] 
# Pf   : final proton momentum [GeV/c] 
# th_p : proton scattering angle [deg] 
# q    : 3-momentum transfer [GeV] 
# th_q : relative angle between q-vector and +z (lab)  [deg] 
# th_nq: relative angle between q-vector and recoil neutron [deg] 
# th_pq: relative angle between q-vector and knocked-out proton [deg] 
# Q2   : 4-Momentum Transfer [GeV^2]  
# 
#! Pr[f,0]/ 	  xbj[f,1]/ 	 kf[f,2]/ 	 th_e[f,3]/ 	 Pf[f,4]/ 	 th_p[f,5]/ 	 q[f,6]/ 	 th_q[f,7]/ 	 th_nq[f,8]/ 	 th_pq[f,9]/ 	 Q2[f,10]/
  0.1000 	 1.0000 	 2.8546 	 27.8030 	 2.2915 	 32.8925 	 2.2996 	 35.3803 	 84.0901 	 2.4879 	 2.9000
  0.1000 	 1.0000 	 2.8013 	 28.5616 	 2.3490 	 32.1985 	 2.3571 	 34.6256 	 84.1366 	 2.4272 	 3.0000
  0.1000 	 1.0000 	 2.7480 	 29.3305 	 2.4063 	 31.5170 	 2.4143 	 33.8865 	 84.1804 	 2.3695 	 3.1000
  0.1000 	 1.1000 	 2.8982 	 28.5439 	 2.2443 	 34.9585 	 2.3142 	 36.7571 	 44.7819 	 1.7986 	 3.1000
  0.1000 	 1.0000 	 2.6947 	 30.1108 	 2.4634 	 30.8471 	 2.4714 	 33.1618 	 84.2218 	 2.3147 	 3.2000
  0.1000 	 1.1000 	 2.8498 	 29.2615 	 2.2967 	 34.3026 	 2.3671 	 36.0478 	 44.3845 	 1.7452 	 3.2000
  0.1000 	 1.0000 	 2.6414 	 30.9036 	 2.5203 	 30.1880 	 2.5283 	 32.4506 	 84.2609 	 2.2626 	 3.3000
  0.1000 	 1.1000 	 2.8013 	 29.9875 	 2.3490 	 33.6573 	 2.4199 	 35.3519 	 43.9973 	 1.6946 	 3.3000
  0.1000 	 1.0000 	 2.5882 	 31.7101 	 2.5771 	 29.5391 	 2.5851 	 31.7519 	 84.2979 	 2.2128 	 3.4000
  0.1000 	 1.1000 	 2.7529 	 30.7226 	 2.4011 	 33.0219 	 2.4725 	 34.6683 	 43.6198 	 1.6464 	 3.4000
  0.1000 	 1.0000 	 2.5349 	 32.5313 	 2.6337 	 28.8996 	 2.6417 	 31.0649 	 84.3331 	 2.1653 	 3.5000
  0.1000 	 1.1000 	 2.7044 	 31.4677 	 2.4530 	 32.3957 	 2.5249 	 33.9964 	 43.2515 	 1.6007 	 3.5000
  0.1000 	 1.0000 	 2.4816 	 33.3686 	 2.6902 	 28.2688 	 2.6982 	 30.3887 	 84.3664 	 2.1200 	 3.6000
  0.1000 	 1.1000 	 2.6560 	 32.2236 	 2.5048 	 31.7783 	 2.5771 	 33.3354 	 42.8921 	 1.5571 	 3.6000
  0.1000 	 1.0000 	 2.4283 	 34.2233 	 2.7466 	 27.6461 	 2.7546 	 29.7226 	 84.3982 	 2.0765 	 3.7000
  0.1000 	 1.1000 	 2.6075 	 32.9912 	 2.5565 	 31.1691 	 2.6292 	 32.6846 	 42.5412 	 1.5155 	 3.7000
  0.1000 	 1.0000 	 2.3750 	 35.0968 	 2.8029 	 27.0309 	 2.8108 	 29.0658 	 84.4284 	 2.0350 	 3.8000
  0.1000 	 1.1000 	 2.5591 	 33.7715 	 2.6080 	 30.5676 	 2.6812 	 32.0434 	 42.1985 	 1.4758 	 3.8000
  0.1000 	 1.0000 	 2.3217 	 35.9905 	 2.8590 	 26.4226 	 2.8669 	 28.4176 	 84.4572 	 1.9951 	 3.9000
  0.1000 	 1.1000 	 2.5106 	 34.5654 	 2.6594 	 29.9732 	 2.7331 	 31.4111 	 41.8637 	 1.4379 	 3.9000
  0.1000 	 1.0000 	 2.2684 	 36.9061 	 2.9150 	 25.8205 	 2.9229 	 27.7773 	 84.4848 	 1.9568 	 4.0000
  0.1000 	 1.1000 	 2.4622 	 35.3740 	 2.7107 	 29.3855 	 2.7848 	 30.7871 	 41.5364 	 1.4017 	 4.0000
  0.1000 	 1.0000 	 2.2151 	 37.8453 	 2.9710 	 25.2242 	 2.9789 	 27.1442 	 84.5111 	 1.9200 	 4.1000
  0.1000 	 1.1000 	 2.4138 	 36.1983 	 2.7620 	 28.8039 	 2.8364 	 30.1709 	 41.2163 	 1.3670 	 4.1000
  0.1000 	 1.0000 	 2.1618 	 38.8100 	 3.0268 	 24.6330 	 3.0347 	 26.5177 	 84.5362 	 1.8847 	 4.2000
  0.1000 	 1.1000 	 2.3653 	 37.0395 	 2.8131 	 28.2281 	 2.8879 	 29.5619 	 40.9033 	 1.3338 	 4.2000
  0.1000 	 1.0000 	 2.1086 	 39.8021 	 3.0826 	 24.0465 	 3.0904 	 25.8972 	 84.5603 	 1.8507 	 4.3000
  0.1000 	 1.1000 	 2.3169 	 37.8989 	 2.8641 	 27.6576 	 2.9393 	 28.9595 	 40.5969 	 1.3019 	 4.3000
  0.1000 	 1.0000 	 2.0553 	 40.8239 	 3.1382 	 23.4640 	 3.1461 	 25.2819 	 84.5834 	 1.8179 	 4.4000
  0.1000 	 1.1000 	 2.2684 	 38.7776 	 2.9150 	 27.0920 	 2.9906 	 28.3633 	 40.2971 	 1.2713 	 4.4000
  0.1000 	 1.0000 	 2.0020 	 41.8778 	 3.1938 	 22.8850 	 3.2016 	 24.6713 	 84.6055 	 1.7863 	 4.5000
  0.1000 	 1.1000 	 2.2200 	 39.6772 	 2.9659 	 26.5308 	 3.0418 	 27.7727 	 40.0035 	 1.2419 	 4.5000
  0.2000 	 1.0000 	 2.8546 	 27.8030 	 2.2745 	 30.4080 	 2.2996 	 35.3803 	 80.2942 	 4.9723 	 2.9000
  0.2000 	 1.1000 	 2.9951 	 27.1303 	 2.1217 	 33.4370 	 2.2077 	 38.2191 	 62.1763 	 4.7821 	 2.9000
  0.2000 	 1.0000 	 2.8013 	 28.5616 	 2.3320 	 29.7751 	 2.3571 	 34.6256 	 80.3801 	 4.8506 	 3.0000
  0.2000 	 1.1000 	 2.9467 	 27.8337 	 2.1746 	 32.8192 	 2.2610 	 37.4805 	 62.0772 	 4.6613 	 3.0000
  0.2000 	 1.0000 	 2.7480 	 29.3305 	 2.3893 	 29.1515 	 2.4143 	 33.8865 	 80.4612 	 4.7350 	 3.1000
  0.2000 	 1.1000 	 2.8982 	 28.5439 	 2.2272 	 32.2104 	 2.3142 	 36.7571 	 61.9797 	 4.5467 	 3.1000
  0.2000 	 1.0000 	 2.6947 	 30.1108 	 2.4465 	 28.5366 	 2.4714 	 33.1618 	 80.5378 	 4.6252 	 3.2000
  0.2000 	 1.1000 	 2.8498 	 29.2615 	 2.2797 	 31.6100 	 2.3671 	 36.0478 	 61.8839 	 4.4379 	 3.2000
  0.2000 	 1.0000 	 2.6414 	 30.9036 	 2.5035 	 27.9299 	 2.5283 	 32.4506 	 80.6103 	 4.5206 	 3.3000
  0.2000 	 1.1000 	 2.8013 	 29.9875 	 2.3320 	 31.0175 	 2.4199 	 35.3519 	 61.7898 	 4.3343 	 3.3000
  0.2000 	 1.2000 	 2.9345 	 29.2833 	 2.1877 	 34.4912 	 2.3340 	 37.9505 	 41.3024 	 3.4593 	 3.3000
  0.2000 	 1.0000 	 2.5882 	 31.7101 	 2.5603 	 27.3309 	 2.5851 	 31.7519 	 80.6790 	 4.4209 	 3.4000
  0.2000 	 1.1000 	 2.7529 	 30.7226 	 2.3841 	 30.4326 	 2.4725 	 34.6683 	 61.6975 	 4.2357 	 3.4000
  0.2000 	 1.2000 	 2.8901 	 29.9667 	 2.2360 	 33.9220 	 2.3832 	 37.2822 	 40.9417 	 3.3602 	 3.4000
  0.2000 	 1.0000 	 2.5349 	 32.5313 	 2.6170 	 26.7391 	 2.6417 	 31.0649 	 80.7442 	 4.3258 	 3.5000
  0.2000 	 1.1000 	 2.7044 	 31.4677 	 2.4361 	 29.8548 	 2.5249 	 33.9964 	 61.6069 	 4.1416 	 3.5000
  0.2000 	 1.2000 	 2.8457 	 30.6568 	 2.2841 	 33.3593 	 2.4322 	 36.6252 	 40.5881 	 3.2659 	 3.5000
  0.2000 	 1.0000 	 2.4816 	 33.3686 	 2.6736 	 26.1538 	 2.6982 	 30.3887 	 80.8063 	 4.2349 	 3.6000
  0.2000 	 1.1000 	 2.6560 	 32.2236 	 2.4880 	 29.2837 	 2.5771 	 33.3354 	 61.5180 	 4.0517 	 3.6000
  0.2000 	 1.2000 	 2.8013 	 31.3544 	 2.3320 	 32.8030 	 2.4811 	 35.9790 	 40.2412 	 3.1760 	 3.6000
  0.2000 	 1.0000 	 2.4283 	 34.2233 	 2.7300 	 25.5747 	 2.7546 	 29.7226 	 80.8653 	 4.1479 	 3.7000
  0.2000 	 1.1000 	 2.6075 	 32.9912 	 2.5397 	 28.7188 	 2.6292 	 32.6846 	 61.4309 	 3.9658 	 3.7000
  0.2000 	 1.2000 	 2.7569 	 32.0602 	 2.3798 	 32.2527 	 2.5298 	 35.3430 	 39.9009 	 3.0902 	 3.7000
  0.2000 	 1.0000 	 2.3750 	 35.0968 	 2.7863 	 25.0012 	 2.8108 	 29.0658 	 80.9216 	 4.0646 	 3.8000
  0.2000 	 1.1000 	 2.5591 	 33.7715 	 2.5913 	 28.1598 	 2.6812 	 32.0434 	 61.3455 	 3.8836 	 3.8000
  0.2000 	 1.2000 	 2.7125 	 32.7748 	 2.4275 	 31.7081 	 2.5783 	 34.7164 	 39.5671 	 3.0083 	 3.8000
  0.2000 	 1.0000 	 2.3217 	 35.9905 	 2.8424 	 24.4329 	 2.8669 	 28.4176 	 80.9753 	 3.9848 	 3.9000
  0.2000 	 1.1000 	 2.5106 	 34.5654 	 2.6427 	 27.6063 	 2.7331 	 31.4111 	 61.2618 	 3.8048 	 3.9000
  0.2000 	 1.2000 	 2.6681 	 33.4990 	 2.4750 	 31.1688 	 2.6267 	 34.0988 	 39.2394 	 2.9300 	 3.9000
  0.2000 	 1.0000 	 2.2684 	 36.9061 	 2.8985 	 23.8692 	 2.9229 	 27.7773 	 81.0266 	 3.9081 	 4.0000
  0.2000 	 1.1000 	 2.4622 	 35.3740 	 2.6941 	 27.0579 	 2.7848 	 30.7871 	 61.1797 	 3.7292 	 4.0000
  0.2000 	 1.2000 	 2.6237 	 34.2334 	 2.5225 	 30.6346 	 2.6749 	 33.4896 	 38.9178 	 2.8550 	 4.0000
  0.2000 	 1.0000 	 2.2151 	 37.8453 	 2.9545 	 23.3097 	 2.9789 	 27.1442 	 81.0757 	 3.8345 	 4.1000
  0.2000 	 1.1000 	 2.4138 	 36.1983 	 2.7453 	 26.5142 	 2.8364 	 30.1709 	 61.0993 	 3.6567 	 4.1000
  0.2000 	 1.2000 	 2.5793 	 34.9788 	 2.5698 	 30.1052 	 2.7231 	 32.8884 	 38.6020 	 2.7832 	 4.1000
  0.2000 	 1.0000 	 2.1618 	 38.8100 	 3.0103 	 22.7540 	 3.0347 	 26.5177 	 81.1227 	 3.7637 	 4.2000
  0.2000 	 1.1000 	 2.3653 	 37.0395 	 2.7965 	 25.9749 	 2.8879 	 29.5619 	 61.0205 	 3.5870 	 4.2000
  0.2000 	 1.2000 	 2.5349 	 35.7360 	 2.6170 	 29.5802 	 2.7710 	 32.2945 	 38.2918 	 2.7144 	 4.2000
  0.2000 	 1.0000 	 2.1086 	 39.8021 	 3.0661 	 22.2015 	 3.0904 	 25.8972 	 81.1677 	 3.6956 	 4.3000
  0.2000 	 1.1000 	 2.3169 	 37.8989 	 2.8475 	 25.4396 	 2.9393 	 28.9595 	 60.9432 	 3.5200 	 4.3000
  0.2000 	 1.2000 	 2.4905 	 36.5058 	 2.6641 	 29.0593 	 2.8189 	 31.7076 	 37.9871 	 2.6483 	 4.3000
  0.2000 	 1.0000 	 2.0553 	 40.8239 	 3.1218 	 21.6519 	 3.1461 	 25.2819 	 81.2109 	 3.6300 	 4.4000
  0.2000 	 1.1000 	 2.2684 	 38.7776 	 2.8985 	 24.9079 	 2.9906 	 28.3633 	 60.8676 	 3.4555 	 4.4000
  0.2000 	 1.2000 	 2.4461 	 37.2891 	 2.7112 	 28.5424 	 2.8667 	 31.1273 	 37.6876 	 2.5849 	 4.4000
  0.2000 	 1.0000 	 2.0020 	 41.8778 	 3.1774 	 21.1045 	 3.2016 	 24.6713 	 81.2523 	 3.5668 	 4.5000
  0.2000 	 1.1000 	 2.2200 	 39.6772 	 2.9494 	 24.3794 	 3.0418 	 27.7727 	 60.7934 	 3.3933 	 4.5000
  0.2000 	 1.2000 	 2.4016 	 38.0867 	 2.7581 	 28.0291 	 2.9143 	 30.5530 	 37.3934 	 2.5239 	 4.5000
  0.3000 	 1.0000 	 2.8546 	 27.8030 	 2.2467 	 27.9317 	 2.2996 	 35.3803 	 76.1286 	 7.4487 	 2.9000
  0.3000 	 1.1000 	 2.9951 	 27.1303 	 2.0936 	 30.8192 	 2.2077 	 38.2191 	 63.9997 	 7.3998 	 2.9000
  0.3000 	 1.2000 	 3.1122 	 26.6056 	 1.9646 	 33.8430 	 2.1351 	 40.7531 	 51.9876 	 6.9101 	 2.9000
  0.3000 	 1.0000 	 2.8013 	 28.5616 	 2.3043 	 27.3604 	 2.3571 	 34.6256 	 76.2557 	 7.2653 	 3.0000
  0.3000 	 1.1000 	 2.9467 	 27.8337 	 2.1466 	 30.2637 	 2.2610 	 37.4805 	 64.0092 	 7.2168 	 3.0000
  0.3000 	 1.2000 	 3.0678 	 27.2679 	 2.0137 	 33.3035 	 2.1851 	 40.0315 	 51.8482 	 6.7279 	 3.0000
  0.3000 	 1.0000 	 2.7480 	 29.3305 	 2.3617 	 26.7952 	 2.4143 	 33.8865 	 76.3756 	 7.0913 	 3.1000
  0.3000 	 1.1000 	 2.8982 	 28.5439 	 2.1993 	 29.7140 	 2.3142 	 36.7571 	 64.0156 	 7.0431 	 3.1000
  0.3000 	 1.2000 	 3.0234 	 27.9346 	 2.0626 	 32.7692 	 2.2350 	 39.3244 	 51.7100 	 6.5552 	 3.1000
  0.3000 	 1.0000 	 2.6947 	 30.1108 	 2.4190 	 26.2358 	 2.4714 	 33.1618 	 76.4889 	 6.9260 	 3.2000
  0.3000 	 1.1000 	 2.8498 	 29.2615 	 2.2519 	 29.1697 	 2.3671 	 36.0478 	 64.0194 	 6.8781 	 3.2000
  0.3000 	 1.2000 	 2.9789 	 28.6062 	 2.1113 	 32.2398 	 2.2846 	 38.6310 	 51.5731 	 6.3913 	 3.2000
  0.3000 	 1.0000 	 2.6414 	 30.9036 	 2.4761 	 25.6819 	 2.5283 	 32.4506 	 76.5962 	 6.7686 	 3.3000
  0.3000 	 1.1000 	 2.8013 	 29.9875 	 2.3043 	 28.6308 	 2.4199 	 35.3519 	 64.0208 	 6.7211 	 3.3000
  0.3000 	 1.2000 	 2.9345 	 29.2833 	 2.1598 	 31.7152 	 2.3340 	 37.9505 	 51.4376 	 6.2354 	 3.3000
  0.3000 	 1.0000 	 2.5882 	 31.7101 	 2.5330 	 25.1332 	 2.5851 	 31.7519 	 76.6978 	 6.6187 	 3.4000
  0.3000 	 1.1000 	 2.7529 	 30.7226 	 2.3565 	 28.0969 	 2.4725 	 34.6683 	 64.0202 	 6.5714 	 3.4000
  0.3000 	 1.2000 	 2.8901 	 29.9667 	 2.2081 	 31.1952 	 2.3832 	 37.2822 	 51.3038 	 6.0869 	 3.4000
  0.3000 	 1.3000 	 3.0063 	 29.3688 	 2.0813 	 34.6019 	 2.3114 	 39.6334 	 37.4789 	 5.0315 	 3.4000
  0.3000 	 1.0000 	 2.5349 	 32.5313 	 2.5897 	 24.5893 	 2.6417 	 31.0649 	 76.7943 	 6.4756 	 3.5000
  0.3000 	 1.1000 	 2.7044 	 31.4677 	 2.4086 	 27.5678 	 2.5249 	 33.9964 	 64.0177 	 6.4286 	 3.5000
  0.3000 	 1.2000 	 2.8457 	 30.6568 	 2.2563 	 30.6798 	 2.4322 	 36.6252 	 51.1716 	 5.9454 	 3.5000
  0.3000 	 1.3000 	 2.9653 	 30.0176 	 2.1262 	 34.1045 	 2.3576 	 38.9914 	 37.1401 	 4.8869 	 3.5000
  0.3000 	 1.0000 	 2.4816 	 33.3686 	 2.6463 	 24.0499 	 2.6982 	 30.3887 	 76.8861 	 6.3389 	 3.6000
  0.3000 	 1.1000 	 2.6560 	 32.2236 	 2.4605 	 27.0432 	 2.5771 	 33.3354 	 64.0137 	 6.2922 	 3.6000
  0.3000 	 1.2000 	 2.8013 	 31.3544 	 2.3043 	 30.1686 	 2.4811 	 35.9790 	 51.0411 	 5.8104 	 3.6000
  0.3000 	 1.3000 	 2.9243 	 30.6715 	 2.1709 	 33.6110 	 2.4037 	 38.3599 	 36.8059 	 4.7489 	 3.6000
  0.3000 	 1.0000 	 2.4283 	 34.2233 	 2.7028 	 23.5145 	 2.7546 	 29.7226 	 76.9734 	 6.2081 	 3.7000
  0.3000 	 1.1000 	 2.6075 	 32.9912 	 2.5123 	 26.5229 	 2.6292 	 32.6846 	 64.0083 	 6.1617 	 3.7000
  0.3000 	 1.2000 	 2.7569 	 32.0602 	 2.3522 	 29.6616 	 2.5298 	 35.3430 	 50.9125 	 5.6813 	 3.7000
  0.3000 	 1.3000 	 2.8833 	 31.3312 	 2.2155 	 33.1211 	 2.4496 	 37.7383 	 36.4760 	 4.6172 	 3.7000
  0.3000 	 1.0000 	 2.3750 	 35.0968 	 2.7591 	 22.9830 	 2.8108 	 29.0658 	 77.0567 	 6.0829 	 3.8000
  0.3000 	 1.1000 	 2.5591 	 33.7715 	 2.5639 	 26.0066 	 2.6812 	 32.0434 	 64.0017 	 6.0368 	 3.8000
  0.3000 	 1.2000 	 2.7125 	 32.7748 	 2.3999 	 29.1585 	 2.5783 	 34.7164 	 50.7857 	 5.5579 	 3.8000
  0.3000 	 1.3000 	 2.8423 	 31.9971 	 2.2600 	 32.6347 	 2.4953 	 37.1260 	 36.1504 	 4.4913 	 3.8000
  0.3000 	 1.0000 	 2.3217 	 35.9905 	 2.8154 	 22.4548 	 2.8669 	 28.4176 	 77.1361 	 5.9628 	 3.9000
  0.3000 	 1.1000 	 2.5106 	 34.5654 	 2.6155 	 25.4941 	 2.7331 	 31.4111 	 63.9939 	 5.9171 	 3.9000
  0.3000 	 1.2000 	 2.6681 	 33.4990 	 2.4475 	 28.6591 	 2.6267 	 34.0988 	 50.6607 	 5.4397 	 3.9000
  0.3000 	 1.3000 	 2.8013 	 32.6698 	 2.3043 	 32.1517 	 2.5408 	 36.5225 	 35.8292 	 4.3708 	 3.9000
  0.3000 	 1.0000 	 2.2684 	 36.9061 	 2.8715 	 21.9297 	 2.9229 	 27.7773 	 77.2120 	 5.8477 	 4.0000
  0.3000 	 1.1000 	 2.4622 	 35.3740 	 2.6669 	 24.9850 	 2.7848 	 30.7871 	 63.9853 	 5.8022 	 4.0000
  0.3000 	 1.2000 	 2.6237 	 34.2334 	 2.4950 	 28.1632 	 2.6749 	 33.4896 	 50.5377 	 5.3264 	 4.0000
  0.3000 	 1.3000 	 2.7603 	 33.3499 	 2.3485 	 31.6720 	 2.5862 	 35.9274 	 35.5121 	 4.2554 	 4.0000
  0.3000 	 1.0000 	 2.2151 	 37.8453 	 2.9275 	 21.4072 	 2.9789 	 27.1442 	 77.2846 	 5.7371 	 4.1000
  0.3000 	 1.1000 	 2.4138 	 36.1983 	 2.7182 	 24.4791 	 2.8364 	 30.1709 	 63.9758 	 5.6918 	 4.1000
  0.3000 	 1.2000 	 2.5793 	 34.9788 	 2.5424 	 27.6707 	 2.7231 	 32.8884 	 50.4165 	 5.2177 	 4.1000
  0.3000 	 1.3000 	 2.7193 	 34.0379 	 2.3926 	 31.1954 	 2.6315 	 35.3402 	 35.1992 	 4.1447 	 4.1000
  0.3000 	 1.0000 	 2.1618 	 38.8100 	 2.9834 	 20.8870 	 3.0347 	 26.5177 	 77.3541 	 5.6307 	 4.2000
  0.3000 	 1.1000 	 2.3653 	 37.0395 	 2.7694 	 23.9761 	 2.8879 	 29.5619 	 63.9656 	 5.5858 	 4.2000
  0.3000 	 1.2000 	 2.5349 	 35.7360 	 2.5897 	 27.1812 	 2.7710 	 32.2945 	 50.2972 	 5.1133 	 4.2000
  0.3000 	 1.3000 	 2.6783 	 34.7343 	 2.4366 	 30.7218 	 2.6766 	 34.7604 	 34.8903 	 4.0386 	 4.2000
  0.3000 	 1.0000 	 2.1086 	 39.8021 	 3.0392 	 20.3687 	 3.0904 	 25.8972 	 77.4207 	 5.5284 	 4.3000
  0.3000 	 1.1000 	 2.3169 	 37.8989 	 2.8205 	 23.4758 	 2.9393 	 28.9595 	 63.9548 	 5.4837 	 4.3000
  0.3000 	 1.2000 	 2.4905 	 36.5058 	 2.6369 	 26.6946 	 2.8189 	 31.7076 	 50.1797 	 5.0130 	 4.3000
  0.3000 	 1.3000 	 2.6373 	 35.4399 	 2.4804 	 30.2510 	 2.7216 	 34.1876 	 34.5853 	 3.9366 	 4.3000
  0.3000 	 1.0000 	 2.0553 	 40.8239 	 3.0950 	 19.8519 	 3.1461 	 25.2819 	 77.4846 	 5.4299 	 4.4000
  0.3000 	 1.1000 	 2.2684 	 38.7776 	 2.8715 	 22.9778 	 2.9906 	 28.3633 	 63.9434 	 5.3855 	 4.4000
  0.3000 	 1.2000 	 2.4461 	 37.2891 	 2.6840 	 26.2107 	 2.8667 	 31.1273 	 50.0642 	 4.9165 	 4.4000
  0.3000 	 1.3000 	 2.5964 	 36.1551 	 2.5242 	 29.7828 	 2.7664 	 33.6215 	 34.2843 	 3.8387 	 4.4000
  0.3000 	 1.0000 	 2.0020 	 41.8778 	 3.1506 	 19.3363 	 3.2016 	 24.6713 	 77.5459 	 5.3350 	 4.5000
  0.3000 	 1.1000 	 2.2200 	 39.6772 	 2.9224 	 22.4819 	 3.0418 	 27.7727 	 63.9315 	 5.2909 	 4.5000
  0.3000 	 1.2000 	 2.4016 	 38.0867 	 2.7310 	 25.7293 	 2.9143 	 30.5530 	 49.9504 	 4.8237 	 4.5000
  0.3000 	 1.3000 	 2.5554 	 36.8808 	 2.5679 	 29.3171 	 2.8112 	 33.0616 	 33.9871 	 3.7445 	 4.5000
  0.3000 	 1.4000 	 2.6871 	 35.9335 	 2.4271 	 34.9061 	 2.7265 	 35.3357 	 3.4772 	 0.4295 	 4.5000
  0.4000 	 1.0000 	 2.8546 	 27.8030 	 2.2088 	 25.4645 	 2.2996 	 35.3803 	 71.9714 	 9.9158 	 2.9000
  0.4000 	 1.1000 	 2.9951 	 27.1303 	 2.0553 	 28.2583 	 2.2077 	 38.2191 	 62.7212 	 9.9608 	 2.9000
  0.4000 	 1.2000 	 3.1122 	 26.6056 	 1.9259 	 31.1084 	 2.1351 	 40.7531 	 53.7694 	 9.6447 	 2.9000
  0.4000 	 1.3000 	 3.2112 	 26.1846 	 1.8150 	 34.0890 	 2.0768 	 43.0233 	 44.8052 	 8.9343 	 2.9000
  0.4000 	 1.0000 	 2.8013 	 28.5616 	 2.2666 	 24.9557 	 2.3571 	 34.6256 	 72.1404 	 9.6699 	 3.0000
  0.4000 	 1.1000 	 2.9467 	 27.8337 	 2.1084 	 27.7659 	 2.2610 	 37.4805 	 62.8050 	 9.7146 	 3.0000
  0.4000 	 1.2000 	 3.0678 	 27.2679 	 1.9752 	 30.6317 	 2.1851 	 40.0315 	 53.7518 	 9.3998 	 3.0000
  0.4000 	 1.3000 	 3.1702 	 26.8152 	 1.8611 	 33.6298 	 2.1242 	 42.3189 	 44.6594 	 8.6891 	 3.0000
  0.4000 	 1.0000 	 2.7480 	 29.3305 	 2.3242 	 24.4498 	 2.4143 	 33.8865 	 72.2997 	 9.4366 	 3.1000
  0.4000 	 1.1000 	 2.8982 	 28.5439 	 2.1614 	 27.2759 	 2.3142 	 36.7571 	 62.8822 	 9.4812 	 3.1000
  0.4000 	 1.2000 	 3.0234 	 27.9346 	 2.0242 	 30.1569 	 2.2350 	 39.3244 	 53.7305 	 9.1675 	 3.1000
  0.4000 	 1.3000 	 3.1293 	 27.4485 	 1.9069 	 33.1718 	 2.1714 	 41.6285 	 44.5127 	 8.4567 	 3.1000
  0.4000 	 1.0000 	 2.6947 	 30.1108 	 2.3815 	 23.9467 	 2.4714 	 33.1618 	 72.4503 	 9.2151 	 3.2000
  0.4000 	 1.1000 	 2.8498 	 29.2615 	 2.2141 	 26.7885 	 2.3671 	 36.0478 	 62.9534 	 9.2594 	 3.2000
  0.4000 	 1.2000 	 2.9789 	 28.6062 	 2.0730 	 29.6842 	 2.2846 	 38.6310 	 53.7059 	 8.9468 	 3.2000
  0.4000 	 1.3000 	 3.0883 	 28.0848 	 1.9524 	 32.7151 	 2.2183 	 40.9513 	 44.3653 	 8.2361 	 3.2000
  0.4000 	 1.0000 	 2.6414 	 30.9036 	 2.4387 	 23.4463 	 2.5283 	 32.4506 	 72.5927 	 9.0043 	 3.3000
  0.4000 	 1.1000 	 2.8013 	 29.9875 	 2.2666 	 26.3035 	 2.4199 	 35.3519 	 63.0191 	 9.0483 	 3.3000
  0.4000 	 1.2000 	 2.9345 	 29.2833 	 2.1217 	 29.2136 	 2.3340 	 37.9505 	 53.6787 	 8.7370 	 3.3000
  0.4000 	 1.3000 	 3.0473 	 28.7247 	 1.9978 	 32.2601 	 2.2649 	 40.2865 	 44.2177 	 8.0264 	 3.3000
  0.4000 	 1.0000 	 2.5882 	 31.7101 	 2.4957 	 22.9484 	 2.5851 	 31.7519 	 72.7277 	 8.8035 	 3.4000
  0.4000 	 1.1000 	 2.7529 	 30.7226 	 2.3189 	 25.8211 	 2.4725 	 34.6683 	 63.0799 	 8.8472 	 3.4000
  0.4000 	 1.2000 	 2.8901 	 29.9667 	 2.1702 	 28.7451 	 2.3832 	 37.2822 	 53.6490 	 8.5371 	 3.4000
  0.4000 	 1.3000 	 3.0063 	 29.3688 	 2.0430 	 31.8066 	 2.3114 	 39.6334 	 44.0702 	 7.8268 	 3.4000
  0.4000 	 1.0000 	 2.5349 	 32.5313 	 2.5526 	 22.4530 	 2.6417 	 31.0649 	 72.8558 	 8.6119 	 3.5000
  0.4000 	 1.1000 	 2.7044 	 31.4677 	 2.3711 	 25.3410 	 2.5249 	 33.9964 	 63.1363 	 8.6554 	 3.5000
  0.4000 	 1.2000 	 2.8457 	 30.6568 	 2.2185 	 28.2788 	 2.4322 	 36.6252 	 53.6174 	 8.3465 	 3.5000
  0.4000 	 1.3000 	 2.9653 	 30.0176 	 2.0880 	 31.3549 	 2.3576 	 38.9914 	 43.9230 	 7.6366 	 3.5000
  0.4000 	 1.4000 	 3.0678 	 29.5003 	 1.9752 	 34.7250 	 2.2967 	 41.1284 	 33.4162 	 6.4035 	 3.5000
  0.4000 	 1.0000 	 2.4816 	 33.3686 	 2.6093 	 21.9598 	 2.6982 	 30.3887 	 72.9776 	 8.4289 	 3.6000
  0.4000 	 1.1000 	 2.6560 	 32.2236 	 2.4232 	 24.8633 	 2.5771 	 33.3354 	 63.1886 	 8.4721 	 3.6000
  0.4000 	 1.2000 	 2.8013 	 31.3544 	 2.2666 	 27.8146 	 2.4811 	 35.9790 	 53.5840 	 8.1645 	 3.6000
  0.4000 	 1.3000 	 2.9243 	 30.6715 	 2.1329 	 30.9049 	 2.4037 	 38.3599 	 43.7764 	 7.4550 	 3.6000
  0.4000 	 1.4000 	 3.0297 	 30.1204 	 2.0172 	 34.2955 	 2.3405 	 40.5114 	 33.0959 	 6.2160 	 3.6000
  0.4000 	 1.0000 	 2.4283 	 34.2233 	 2.6659 	 21.4687 	 2.7546 	 29.7226 	 73.0936 	 8.2539 	 3.7000
  0.4000 	 1.1000 	 2.6075 	 32.9912 	 2.4750 	 24.3878 	 2.6292 	 32.6846 	 63.2371 	 8.2969 	 3.7000
  0.4000 	 1.2000 	 2.7569 	 32.0602 	 2.3146 	 27.3525 	 2.5298 	 35.3430 	 53.5492 	 7.9905 	 3.7000
  0.4000 	 1.3000 	 2.8833 	 31.3312 	 2.1776 	 30.4567 	 2.4496 	 37.7383 	 43.6305 	 7.2816 	 3.7000
  0.4000 	 1.4000 	 2.9916 	 30.7444 	 2.0591 	 33.8673 	 2.3840 	 39.9041 	 32.7775 	 6.0368 	 3.7000
  0.4000 	 1.0000 	 2.3750 	 35.0968 	 2.7223 	 20.9794 	 2.8108 	 29.0658 	 73.2040 	 8.0864 	 3.8000
  0.4000 	 1.1000 	 2.5591 	 33.7715 	 2.5268 	 23.9144 	 2.6812 	 32.0434 	 63.2823 	 8.1290 	 3.8000
  0.4000 	 1.2000 	 2.7125 	 32.7748 	 2.3624 	 26.8925 	 2.5783 	 34.7164 	 53.5131 	 7.8239 	 3.8000
  0.4000 	 1.3000 	 2.8423 	 31.9971 	 2.2222 	 30.0103 	 2.4953 	 37.1260 	 43.4855 	 7.1157 	 3.8000
  0.4000 	 1.4000 	 2.9536 	 31.3728 	 2.1009 	 33.4404 	 2.4274 	 39.3058 	 32.4610 	 5.8653 	 3.8000
  0.4000 	 1.0000 	 2.3217 	 35.9905 	 2.7786 	 20.4917 	 2.8669 	 28.4176 	 73.3094 	 7.9259 	 3.9000
  0.4000 	 1.1000 	 2.5106 	 34.5654 	 2.5784 	 23.4429 	 2.7331 	 31.4111 	 63.3244 	 7.9682 	 3.9000
  0.4000 	 1.2000 	 2.6681 	 33.4990 	 2.4102 	 26.4344 	 2.6267 	 34.0988 	 53.4760 	 7.6644 	 3.9000
  0.4000 	 1.3000 	 2.8013 	 32.6698 	 2.2666 	 29.5656 	 2.5408 	 36.5225 	 43.3415 	 6.9569 	 3.9000
  0.4000 	 1.4000 	 2.9155 	 32.0061 	 2.1425 	 33.0150 	 2.4706 	 38.7161 	 32.1465 	 5.7012 	 3.9000
  0.4000 	 1.0000 	 2.2684 	 36.9061 	 2.8348 	 20.0054 	 2.9229 	 27.7773 	 73.4101 	 7.7720 	 4.0000
  0.4000 	 1.1000 	 2.4622 	 35.3740 	 2.6299 	 22.9732 	 2.7848 	 30.7871 	 63.3637 	 7.8139 	 4.0000
  0.4000 	 1.2000 	 2.6237 	 34.2334 	 2.4578 	 25.9782 	 2.6749 	 33.4896 	 53.4380 	 7.5114 	 4.0000
  0.4000 	 1.3000 	 2.7603 	 33.3499 	 2.3109 	 29.1226 	 2.5862 	 35.9274 	 43.1986 	 6.8048 	 4.0000
  0.4000 	 1.4000 	 2.8774 	 32.6447 	 2.1840 	 32.5909 	 2.5136 	 38.1346 	 31.8342 	 5.5437 	 4.0000
  0.4000 	 1.0000 	 2.2151 	 37.8453 	 2.8909 	 19.5201 	 2.9789 	 27.1442 	 73.5064 	 7.6241 	 4.1000
  0.4000 	 1.1000 	 2.4138 	 36.1983 	 2.6813 	 22.5052 	 2.8364 	 30.1709 	 63.4003 	 7.6657 	 4.1000
  0.4000 	 1.2000 	 2.5793 	 34.9788 	 2.5052 	 25.5238 	 2.7231 	 32.8884 	 53.3993 	 7.3645 	 4.1000
  0.4000 	 1.3000 	 2.7193 	 34.0379 	 2.3551 	 28.6813 	 2.6315 	 35.3402 	 43.0569 	 6.6588 	 4.1000
  0.4000 	 1.4000 	 2.8394 	 33.2891 	 2.2253 	 32.1682 	 2.5565 	 37.5609 	 31.5240 	 5.3927 	 4.1000
  0.4000 	 1.0000 	 2.1618 	 38.8100 	 2.9468 	 19.0357 	 3.0347 	 26.5177 	 73.5985 	 7.4820 	 4.2000
  0.4000 	 1.1000 	 2.3653 	 37.0395 	 2.7325 	 22.0386 	 2.8879 	 29.5619 	 63.4345 	 7.5233 	 4.2000
  0.4000 	 1.2000 	 2.5349 	 35.7360 	 2.5526 	 25.0711 	 2.7710 	 32.2945 	 53.3600 	 7.2234 	 4.2000
  0.4000 	 1.3000 	 2.6783 	 34.7343 	 2.3992 	 28.2416 	 2.6766 	 34.7604 	 42.9164 	 6.5187 	 4.2000
  0.4000 	 1.4000 	 2.8013 	 33.9397 	 2.2666 	 31.7468 	 2.5992 	 36.9945 	 31.2159 	 5.2477 	 4.2000
  0.4000 	 1.0000 	 2.1086 	 39.8021 	 3.0027 	 18.5518 	 3.0904 	 25.8972 	 73.6868 	 7.3454 	 4.3000
  0.4000 	 1.1000 	 2.3169 	 37.8989 	 2.7837 	 21.5732 	 2.9393 	 28.9595 	 63.4665 	 7.3863 	 4.3000
  0.4000 	 1.2000 	 2.4905 	 36.5058 	 2.5999 	 24.6199 	 2.8189 	 31.7076 	 53.3203 	 7.0878 	 4.3000
  0.4000 	 1.3000 	 2.6373 	 35.4399 	 2.4431 	 27.8035 	 2.7216 	 34.1876 	 42.7773 	 6.3842 	 4.3000
  0.4000 	 1.4000 	 2.7633 	 34.5970 	 2.3077 	 31.3268 	 2.6418 	 36.4351 	 30.9100 	 5.1083 	 4.3000
  0.4000 	 1.0000 	 2.0553 	 40.8239 	 3.0585 	 18.0681 	 3.1461 	 25.2819 	 73.7715 	 7.2138 	 4.4000
  0.4000 	 1.1000 	 2.2684 	 38.7776 	 2.8348 	 21.1089 	 2.9906 	 28.3633 	 63.4965 	 7.2544 	 4.4000
  0.4000 	 1.2000 	 2.4461 	 37.2891 	 2.6470 	 24.1701 	 2.8667 	 31.1273 	 53.2802 	 6.9572 	 4.4000
  0.4000 	 1.3000 	 2.5964 	 36.1551 	 2.4870 	 27.3668 	 2.7664 	 33.6215 	 42.6396 	 6.2547 	 4.4000
  0.4000 	 1.4000 	 2.7252 	 35.2614 	 2.3488 	 30.9081 	 2.6842 	 35.8822 	 30.6063 	 4.9742 	 4.4000
  0.4000 	 1.0000 	 2.0020 	 41.8778 	 3.1142 	 17.5843 	 3.2016 	 24.6713 	 73.8528 	 7.0870 	 4.5000
  0.4000 	 1.1000 	 2.2200 	 39.6772 	 2.8858 	 20.6454 	 3.0418 	 27.7727 	 63.5246 	 7.1273 	 4.5000
  0.4000 	 1.2000 	 2.4016 	 38.0867 	 2.6941 	 23.7215 	 2.9143 	 30.5530 	 53.2399 	 6.8315 	 4.5000
  0.4000 	 1.3000 	 2.5554 	 36.8808 	 2.5307 	 26.9314 	 2.8112 	 33.0616 	 42.5033 	 6.1302 	 4.5000
  0.4000 	 1.4000 	 2.6871 	 35.9335 	 2.3897 	 30.4906 	 2.7265 	 35.3357 	 30.3048 	 4.8451 	 4.5000
  0.5000 	 1.0000 	 2.8546 	 27.8030 	 2.1619 	 23.0052 	 2.2996 	 35.3803 	 67.9143 	 12.3752 	 2.9000
  0.5000 	 1.1000 	 2.9951 	 27.1303 	 2.0078 	 25.7217 	 2.2077 	 38.2191 	 60.3361 	 12.4974 	 2.9000
  0.5000 	 1.2000 	 3.1122 	 26.6056 	 1.8777 	 28.4620 	 2.1351 	 40.7531 	 53.0790 	 12.2911 	 2.9000
  0.5000 	 1.3000 	 3.2112 	 26.1846 	 1.7663 	 31.2789 	 2.0768 	 43.0233 	 45.9761 	 11.7444 	 2.9000
  0.5000 	 1.4000 	 3.2961 	 25.8392 	 1.6696 	 34.2426 	 2.0294 	 45.0642 	 38.8234 	 10.8216 	 2.9000
  0.5000 	 1.0000 	 2.8013 	 28.5616 	 2.2198 	 22.5603 	 2.3571 	 34.6256 	 68.1258 	 12.0653 	 3.0000
  0.5000 	 1.1000 	 2.9467 	 27.8337 	 2.0611 	 25.2937 	 2.2610 	 37.4805 	 60.4822 	 12.1868 	 3.0000
  0.5000 	 1.2000 	 3.0678 	 27.2679 	 1.9273 	 28.0497 	 2.1851 	 40.0315 	 53.1491 	 11.9817 	 3.0000
  0.5000 	 1.3000 	 3.1702 	 26.8152 	 1.8126 	 30.8825 	 2.1242 	 42.3189 	 45.9557 	 11.4364 	 3.0000
  0.5000 	 1.4000 	 3.2581 	 26.4446 	 1.7131 	 33.8646 	 2.0746 	 44.3771 	 38.6898 	 10.5125 	 3.0000
  0.5000 	 1.0000 	 2.7480 	 29.3305 	 2.2776 	 22.1149 	 2.4143 	 33.8865 	 68.3252 	 11.7716 	 3.1000
  0.5000 	 1.1000 	 2.8982 	 28.5439 	 2.1142 	 24.8648 	 2.3142 	 36.7571 	 60.6185 	 11.8923 	 3.1000
  0.5000 	 1.2000 	 3.0234 	 27.9346 	 1.9765 	 27.6360 	 2.2350 	 39.3244 	 53.2115 	 11.6884 	 3.1000
  0.5000 	 1.3000 	 3.1293 	 27.4485 	 1.8586 	 30.4841 	 2.1714 	 41.6285 	 45.9295 	 11.1444 	 3.1000
  0.5000 	 1.4000 	 3.2200 	 27.0514 	 1.7564 	 33.4840 	 2.1195 	 43.7034 	 38.5521 	 10.2195 	 3.1000
  0.5000 	 1.0000 	 2.6947 	 30.1108 	 2.3351 	 21.6691 	 2.4714 	 33.1618 	 68.5134 	 11.4927 	 3.2000
  0.5000 	 1.1000 	 2.8498 	 29.2615 	 2.1671 	 24.4352 	 2.3671 	 36.0478 	 60.7457 	 11.6126 	 3.2000
  0.5000 	 1.2000 	 2.9789 	 28.6062 	 2.0256 	 27.2211 	 2.2846 	 38.6310 	 53.2668 	 11.4099 	 3.2000
  0.5000 	 1.3000 	 3.0883 	 28.0848 	 1.9044 	 30.0840 	 2.2183 	 40.9513 	 45.8983 	 10.8673 	 3.2000
  0.5000 	 1.4000 	 3.1820 	 27.6598 	 1.7994 	 33.1011 	 2.1642 	 43.0424 	 38.4109 	 9.9413 	 3.2000
  0.5000 	 1.0000 	 2.6414 	 30.9036 	 2.3924 	 21.2231 	 2.5283 	 32.4506 	 68.6914 	 11.2275 	 3.3000
  0.5000 	 1.1000 	 2.8013 	 29.9875 	 2.2198 	 24.0053 	 2.4199 	 35.3519 	 60.8647 	 11.3466 	 3.3000
  0.5000 	 1.2000 	 2.9345 	 29.2833 	 2.0744 	 26.8055 	 2.3340 	 37.9505 	 53.3159 	 11.1450 	 3.3000
  0.5000 	 1.3000 	 3.0473 	 28.7247 	 1.9500 	 29.6827 	 2.2649 	 40.2865 	 45.8627 	 10.6037 	 3.3000
  0.5000 	 1.4000 	 3.1439 	 28.2705 	 1.8422 	 32.7164 	 2.2086 	 42.3933 	 38.2669 	 9.6769 	 3.3000
  0.5000 	 1.0000 	 2.5882 	 31.7101 	 2.4496 	 20.7769 	 2.5851 	 31.7519 	 68.8601 	 10.9750 	 3.4000
  0.5000 	 1.1000 	 2.7529 	 30.7226 	 2.2723 	 23.5751 	 2.4725 	 34.6683 	 60.9762 	 11.0932 	 3.4000
  0.5000 	 1.2000 	 2.8901 	 29.9667 	 2.1231 	 26.3894 	 2.3832 	 37.2822 	 53.3595 	 10.8927 	 3.4000
  0.5000 	 1.3000 	 3.0063 	 29.3688 	 1.9954 	 29.2806 	 2.3114 	 39.6334 	 45.8234 	 10.3528 	 3.4000
  0.5000 	 1.4000 	 3.1058 	 28.8839 	 1.8848 	 32.3304 	 2.2527 	 41.7555 	 38.1206 	 9.4252 	 3.4000
  0.5000 	 1.0000 	 2.5349 	 32.5313 	 2.5066 	 20.3308 	 2.6417 	 31.0649 	 69.0202 	 10.7341 	 3.5000
  0.5000 	 1.1000 	 2.7044 	 31.4677 	 2.3247 	 23.1448 	 2.5249 	 33.9964 	 61.0809 	 10.8516 	 3.5000
  0.5000 	 1.2000 	 2.8457 	 30.6568 	 2.1715 	 25.9731 	 2.4322 	 36.6252 	 53.3980 	 10.6521 	 3.5000
  0.5000 	 1.3000 	 2.9653 	 30.0176 	 2.0406 	 28.8778 	 2.3576 	 38.9914 	 45.7808 	 10.1137 	 3.5000
  0.5000 	 1.4000 	 3.0678 	 29.5003 	 1.9273 	 31.9432 	 2.2967 	 41.1284 	 37.9726 	 9.1852 	 3.5000
  0.5000 	 1.0000 	 2.4816 	 33.3686 	 2.5634 	 19.8845 	 2.6982 	 30.3887 	 69.1722 	 10.5042 	 3.6000
  0.5000 	 1.1000 	 2.6560 	 32.2236 	 2.3768 	 22.7146 	 2.5771 	 33.3354 	 61.1793 	 10.6208 	 3.6000
  0.5000 	 1.2000 	 2.8013 	 31.3544 	 2.2198 	 25.5566 	 2.4811 	 35.9790 	 53.4320 	 10.4224 	 3.6000
  0.5000 	 1.3000 	 2.9243 	 30.6715 	 2.0857 	 28.4745 	 2.4037 	 38.3599 	 45.7353 	 9.8854 	 3.6000
  0.5000 	 1.4000 	 3.0297 	 30.1204 	 1.9695 	 31.5552 	 2.3405 	 40.5114 	 37.8231 	 8.9562 	 3.6000
  0.5000 	 1.5000 	 3.1211 	 29.6660 	 1.8678 	 34.9529 	 2.2882 	 42.4620 	 29.2215 	 7.5091 	 3.6000
  0.5000 	 1.0000 	 2.4283 	 34.2233 	 2.6201 	 19.4382 	 2.7546 	 29.7226 	 69.3169 	 10.2845 	 3.7000
  0.5000 	 1.1000 	 2.6075 	 32.9912 	 2.4288 	 22.2845 	 2.6292 	 32.6846 	 61.2720 	 10.4002 	 3.7000
  0.5000 	 1.2000 	 2.7569 	 32.0602 	 2.2680 	 25.1401 	 2.5298 	 35.3430 	 53.4619 	 10.2028 	 3.7000
  0.5000 	 1.3000 	 2.8833 	 31.3312 	 2.1305 	 28.0711 	 2.4496 	 37.7383 	 45.6875 	 9.6672 	 3.7000
  0.5000 	 1.4000 	 2.9916 	 30.7444 	 2.0116 	 31.1666 	 2.3840 	 39.9041 	 37.6725 	 8.7374 	 3.7000
  0.5000 	 1.5000 	 3.0855 	 30.2616 	 1.9075 	 34.5872 	 2.3298 	 41.8686 	 28.9156 	 7.2814 	 3.7000
  0.5000 	 1.0000 	 2.3750 	 35.0968 	 2.6766 	 18.9917 	 2.8108 	 29.0658 	 69.4548 	 10.0742 	 3.8000
  0.5000 	 1.1000 	 2.5591 	 33.7715 	 2.4807 	 21.8544 	 2.6812 	 32.0434 	 61.3594 	 10.1890 	 3.8000
  0.5000 	 1.2000 	 2.7125 	 32.7748 	 2.3159 	 24.7237 	 2.5783 	 34.7164 	 53.4882 	 9.9927 	 3.8000
  0.5000 	 1.3000 	 2.8423 	 31.9971 	 2.1753 	 27.6675 	 2.4953 	 37.1260 	 45.6375 	 9.4585 	 3.8000
  0.5000 	 1.4000 	 2.9536 	 31.3728 	 2.0535 	 30.7776 	 2.4274 	 39.3058 	 37.5212 	 8.5282 	 3.8000
  0.5000 	 1.5000 	 3.0500 	 30.8603 	 1.9470 	 34.2208 	 2.3712 	 41.2841 	 28.6088 	 7.0633 	 3.8000
  0.5000 	 1.0000 	 2.3217 	 35.9905 	 2.7330 	 18.5450 	 2.8669 	 28.4176 	 69.5862 	 9.8727 	 3.9000
  0.5000 	 1.1000 	 2.5106 	 34.5654 	 2.5324 	 21.4245 	 2.7331 	 31.4111 	 61.4420 	 9.9866 	 3.9000
  0.5000 	 1.2000 	 2.6681 	 33.4990 	 2.3638 	 24.3075 	 2.6267 	 34.0988 	 53.5111 	 9.7913 	 3.9000
  0.5000 	 1.3000 	 2.8013 	 32.6698 	 2.2198 	 27.2639 	 2.5408 	 36.5225 	 45.5857 	 9.2586 	 3.9000
  0.5000 	 1.4000 	 2.9155 	 32.0061 	 2.0953 	 30.3883 	 2.4706 	 38.7161 	 37.3694 	 8.3278 	 3.9000
  0.5000 	 1.5000 	 3.0145 	 31.4625 	 1.9864 	 33.8538 	 2.4124 	 40.7079 	 28.3013 	 6.8541 	 3.9000
  0.5000 	 1.0000 	 2.2684 	 36.9061 	 2.7893 	 18.0978 	 2.9229 	 27.7773 	 69.7118 	 9.6795 	 4.0000
  0.5000 	 1.1000 	 2.4622 	 35.3740 	 2.5840 	 20.9946 	 2.7848 	 30.7871 	 61.5200 	 9.7925 	 4.0000
  0.5000 	 1.2000 	 2.6237 	 34.2334 	 2.4115 	 23.8914 	 2.6749 	 33.4896 	 53.5310 	 9.5982 	 4.0000
  0.5000 	 1.3000 	 2.7603 	 33.3499 	 2.2643 	 26.8604 	 2.5862 	 35.9274 	 45.5324 	 9.0670 	 4.0000
  0.5000 	 1.4000 	 2.8774 	 32.6447 	 2.1369 	 29.9988 	 2.5136 	 38.1346 	 37.2173 	 8.1358 	 4.0000
  0.5000 	 1.5000 	 2.9789 	 32.0685 	 2.0256 	 33.4864 	 2.4534 	 40.1397 	 27.9934 	 6.6533 	 4.0000
  0.5000 	 1.0000 	 2.2151 	 37.8453 	 2.8455 	 17.6502 	 2.9789 	 27.1442 	 69.8318 	 9.4940 	 4.1000
  0.5000 	 1.1000 	 2.4138 	 36.1983 	 2.6355 	 20.5647 	 2.8364 	 30.1709 	 61.5939 	 9.6062 	 4.1000
  0.5000 	 1.2000 	 2.5793 	 34.9788 	 2.4591 	 23.4755 	 2.7231 	 32.8884 	 53.5481 	 9.4129 	 4.1000
  0.5000 	 1.3000 	 2.7193 	 34.0379 	 2.3086 	 26.4570 	 2.6315 	 35.3402 	 45.4779 	 8.8832 	 4.1000
  0.5000 	 1.4000 	 2.8394 	 33.2891 	 2.1784 	 29.6092 	 2.5565 	 37.5609 	 37.0652 	 7.9517 	 4.1000
  0.5000 	 1.5000 	 2.9434 	 32.6787 	 2.0647 	 33.1187 	 2.4943 	 39.5790 	 27.6853 	 6.4603 	 4.1000
  0.5000 	 1.0000 	 2.1618 	 38.8100 	 2.9015 	 17.2019 	 3.0347 	 26.5177 	 69.9467 	 9.3158 	 4.2000
  0.5000 	 1.1000 	 2.3653 	 37.0395 	 2.6869 	 20.1348 	 2.8879 	 29.5619 	 61.6639 	 9.4271 	 4.2000
  0.5000 	 1.2000 	 2.5349 	 35.7360 	 2.5066 	 23.0598 	 2.7710 	 32.2945 	 53.5628 	 9.2348 	 4.2000
  0.5000 	 1.3000 	 2.6783 	 34.7343 	 2.3528 	 26.0538 	 2.6766 	 34.7604 	 45.4222 	 8.7066 	 4.2000
  0.5000 	 1.4000 	 2.8013 	 33.9397 	 2.2198 	 29.2196 	 2.5992 	 36.9945 	 36.9132 	 7.7749 	 4.2000
  0.5000 	 1.5000 	 2.9079 	 33.2935 	 2.1036 	 32.7507 	 2.5350 	 39.0255 	 27.3770 	 6.2748 	 4.2000
  0.5000 	 1.0000 	 2.1086 	 39.8021 	 2.9575 	 16.7527 	 3.0904 	 25.8972 	 70.0567 	 9.1445 	 4.3000
  0.5000 	 1.1000 	 2.3169 	 37.8989 	 2.7381 	 19.7046 	 2.9393 	 28.9595 	 61.7303 	 9.2549 	 4.3000
  0.5000 	 1.2000 	 2.4905 	 36.5058 	 2.5539 	 22.6441 	 2.8189 	 31.7076 	 53.5752 	 9.0635 	 4.3000
  0.5000 	 1.3000 	 2.6373 	 35.4399 	 2.3968 	 25.6507 	 2.7216 	 34.1876 	 45.3655 	 8.5369 	 4.3000
  0.5000 	 1.4000 	 2.7633 	 34.5970 	 2.2611 	 28.8300 	 2.6418 	 36.4351 	 36.7614 	 7.6051 	 4.3000
  0.5000 	 1.5000 	 2.8724 	 33.9132 	 2.1425 	 32.3826 	 2.5756 	 38.4789 	 27.0687 	 6.0963 	 4.3000
  0.5000 	 1.0000 	 2.0553 	 40.8239 	 3.0133 	 16.3023 	 3.1461 	 25.2819 	 70.1623 	 8.9796 	 4.4000
  0.5000 	 1.1000 	 2.2684 	 38.7776 	 2.7893 	 19.2742 	 2.9906 	 28.3633 	 61.7934 	 9.0891 	 4.4000
  0.5000 	 1.2000 	 2.4461 	 37.2891 	 2.6012 	 22.2286 	 2.8667 	 31.1273 	 53.5855 	 8.8987 	 4.4000
  0.5000 	 1.3000 	 2.5964 	 36.1551 	 2.4408 	 25.2478 	 2.7664 	 33.6215 	 45.3082 	 8.3737 	 4.4000
  0.5000 	 1.4000 	 2.7252 	 35.2614 	 2.3022 	 28.4405 	 2.6842 	 35.8822 	 36.6101 	 7.4418 	 4.4000
  0.5000 	 1.5000 	 2.8368 	 34.5383 	 2.1812 	 32.0145 	 2.6160 	 37.9388 	 26.7605 	 5.9243 	 4.4000
  0.5000 	 1.0000 	 2.0020 	 41.8778 	 3.0691 	 15.8506 	 3.2016 	 24.6713 	 70.2635 	 8.8208 	 4.5000
  0.5000 	 1.1000 	 2.2200 	 39.6772 	 2.8404 	 18.8433 	 3.0418 	 27.7727 	 61.8534 	 8.9294 	 4.5000
  0.5000 	 1.2000 	 2.4016 	 38.0867 	 2.6483 	 21.8130 	 2.9143 	 30.5530 	 53.5940 	 8.7399 	 4.5000
  0.5000 	 1.3000 	 2.5554 	 36.8808 	 2.4847 	 24.8451 	 2.8112 	 33.0616 	 45.2502 	 8.2165 	 4.5000
  0.5000 	 1.4000 	 2.6871 	 35.9335 	 2.3433 	 28.0511 	 2.7265 	 35.3357 	 36.4593 	 7.2846 	 4.5000
  0.5000 	 1.5000 	 2.8013 	 35.1691 	 2.2198 	 31.6463 	 2.6563 	 37.4048 	 26.4524 	 5.7585 	 4.5000
  0.6000 	 1.0000 	 2.8546 	 27.8030 	 2.1067 	 20.5496 	 2.2996 	 35.3803 	 63.9927 	 14.8308 	 2.9000
  0.6000 	 1.1000 	 2.9951 	 27.1303 	 1.9519 	 23.1951 	 2.2077 	 38.2191 	 57.4902 	 15.0239 	 2.9000
  0.6000 	 1.2000 	 3.1122 	 26.6056 	 1.8211 	 25.8538 	 2.1351 	 40.7531 	 51.2996 	 14.8993 	 2.9000
  0.6000 	 1.3000 	 3.2112 	 26.1846 	 1.7089 	 28.5694 	 2.0768 	 43.0233 	 45.3101 	 14.4539 	 2.9000
  0.6000 	 1.4000 	 3.2961 	 25.8392 	 1.6114 	 31.3941 	 2.0294 	 45.0642 	 39.3983 	 13.6701 	 2.9000
  0.6000 	 1.5000 	 3.3697 	 25.5506 	 1.5256 	 34.4009 	 1.9903 	 46.9054 	 33.4044 	 12.5045 	 2.9000
  0.6000 	 1.0000 	 2.8013 	 28.5616 	 2.1649 	 20.1706 	 2.3571 	 34.6256 	 64.2476 	 14.4551 	 3.0000
  0.6000 	 1.1000 	 2.9467 	 27.8337 	 2.0055 	 22.8336 	 2.2610 	 37.4805 	 57.6936 	 14.6469 	 3.0000
  0.6000 	 1.2000 	 3.0678 	 27.2679 	 1.8710 	 25.5079 	 2.1851 	 40.0315 	 51.4435 	 14.5236 	 3.0000
  0.6000 	 1.3000 	 3.1702 	 26.8152 	 1.7556 	 28.2382 	 2.1242 	 42.3189 	 45.3853 	 14.0807 	 3.0000
  0.6000 	 1.4000 	 3.2581 	 26.4446 	 1.6553 	 31.0781 	 2.0746 	 44.3771 	 39.3920 	 13.2990 	 3.0000
  0.6000 	 1.5000 	 3.3342 	 26.1356 	 1.5672 	 34.1027 	 2.0337 	 46.2354 	 33.2972 	 12.1327 	 3.0000
  0.6000 	 1.0000 	 2.7480 	 29.3305 	 2.2229 	 19.7873 	 2.4143 	 33.8865 	 64.4876 	 14.0992 	 3.1000
  0.6000 	 1.1000 	 2.8982 	 28.5439 	 2.0589 	 22.4674 	 2.3142 	 36.7571 	 57.8838 	 14.2896 	 3.1000
  0.6000 	 1.2000 	 3.0234 	 27.9346 	 1.9205 	 25.1569 	 2.2350 	 39.3244 	 51.5759 	 14.1675 	 3.1000
  0.6000 	 1.3000 	 3.1293 	 27.4485 	 1.8019 	 27.9015 	 2.1714 	 41.6285 	 45.4502 	 13.7270 	 3.1000
  0.6000 	 1.4000 	 3.2200 	 27.0514 	 1.6989 	 30.7561 	 2.1195 	 43.7034 	 39.3769 	 12.9473 	 3.1000
  0.6000 	 1.5000 	 3.2987 	 26.7208 	 1.6085 	 33.7982 	 2.0768 	 45.5783 	 33.1817 	 11.7801 	 3.1000
  0.6000 	 1.0000 	 2.6947 	 30.1108 	 2.2806 	 19.4003 	 2.4714 	 33.1618 	 64.7141 	 13.7615 	 3.2000
  0.6000 	 1.1000 	 2.8498 	 29.2615 	 2.1120 	 22.0973 	 2.3671 	 36.0478 	 58.0621 	 13.9505 	 3.2000
  0.6000 	 1.2000 	 2.9789 	 28.6062 	 1.9698 	 24.8015 	 2.2846 	 38.6310 	 51.6978 	 13.8295 	 3.2000
  0.6000 	 1.3000 	 3.0883 	 28.0848 	 1.8480 	 27.5600 	 2.2183 	 40.9513 	 45.5062 	 13.3912 	 3.2000
  0.6000 	 1.4000 	 3.1820 	 27.6598 	 1.7423 	 30.4289 	 2.1642 	 43.0424 	 39.3538 	 12.6135 	 3.2000
  0.6000 	 1.5000 	 3.2632 	 27.3068 	 1.6495 	 33.4882 	 2.1195 	 44.9333 	 33.0589 	 11.4451 	 3.2000
  0.6000 	 1.0000 	 2.6414 	 30.9036 	 2.3381 	 19.0100 	 2.5283 	 32.4506 	 64.9282 	 13.4406 	 3.3000
  0.6000 	 1.1000 	 2.8013 	 29.9875 	 2.1649 	 21.7237 	 2.4199 	 35.3519 	 58.2294 	 13.6282 	 3.3000
  0.6000 	 1.2000 	 2.9345 	 29.2833 	 2.0189 	 24.4424 	 2.3340 	 37.9505 	 51.8102 	 13.5082 	 3.3000
  0.6000 	 1.3000 	 3.0473 	 28.7247 	 1.8939 	 27.2144 	 2.2649 	 40.2865 	 45.5541 	 13.0721 	 3.3000
  0.6000 	 1.4000 	 3.1439 	 28.2705 	 1.7854 	 30.0972 	 2.2086 	 42.3933 	 39.3239 	 12.2961 	 3.3000
  0.6000 	 1.5000 	 3.2276 	 27.8939 	 1.6902 	 33.1734 	 2.1620 	 44.2997 	 32.9299 	 11.1264 	 3.3000
  0.6000 	 1.0000 	 2.5882 	 31.7101 	 2.3955 	 18.6168 	 2.5851 	 31.7519 	 65.1310 	 13.1351 	 3.4000
  0.6000 	 1.1000 	 2.7529 	 30.7226 	 2.2176 	 21.3470 	 2.4725 	 34.6683 	 58.3869 	 13.3213 	 3.4000
  0.6000 	 1.2000 	 2.8901 	 29.9667 	 2.0678 	 24.0799 	 2.3832 	 37.2822 	 51.9142 	 13.2022 	 3.4000
  0.6000 	 1.3000 	 3.0063 	 29.3688 	 1.9395 	 26.8651 	 2.3114 	 39.6334 	 45.5948 	 12.7683 	 3.4000
  0.6000 	 1.4000 	 3.1058 	 28.8839 	 1.8283 	 29.7616 	 2.2527 	 41.7555 	 39.2880 	 11.9939 	 3.4000
  0.6000 	 1.5000 	 3.1921 	 28.4825 	 1.7307 	 32.8542 	 2.2043 	 43.6770 	 32.7954 	 10.8228 	 3.4000
  0.6000 	 1.0000 	 2.5349 	 32.5313 	 2.4526 	 18.2209 	 2.6417 	 31.0649 	 65.3232 	 12.8440 	 3.5000
  0.6000 	 1.1000 	 2.7044 	 31.4677 	 2.2701 	 20.9677 	 2.5249 	 33.9964 	 58.5352 	 13.0287 	 3.5000
  0.6000 	 1.2000 	 2.8457 	 30.6568 	 2.1164 	 23.7147 	 2.4322 	 36.6252 	 52.0104 	 12.9106 	 3.5000
  0.6000 	 1.3000 	 2.9653 	 30.0176 	 1.9849 	 26.5128 	 2.3576 	 38.9914 	 45.6291 	 12.4786 	 3.5000
  0.6000 	 1.4000 	 3.0678 	 29.5003 	 1.8710 	 29.4225 	 2.2967 	 41.1284 	 39.2467 	 11.7059 	 3.5000
  0.6000 	 1.5000 	 3.1566 	 29.0731 	 1.7710 	 32.5314 	 2.2464 	 43.0646 	 32.6562 	 10.5333 	 3.5000
  0.6000 	 1.0000 	 2.4816 	 33.3686 	 2.5096 	 17.8225 	 2.6982 	 30.3887 	 65.5059 	 12.5663 	 3.6000
  0.6000 	 1.1000 	 2.6560 	 32.2236 	 2.3225 	 20.5859 	 2.5771 	 33.3354 	 58.6752 	 12.7495 	 3.6000
  0.6000 	 1.2000 	 2.8013 	 31.3544 	 2.1649 	 23.3469 	 2.4811 	 35.9790 	 52.0996 	 12.6322 	 3.6000
  0.6000 	 1.3000 	 2.9243 	 30.6715 	 2.0302 	 26.1577 	 2.4037 	 38.3599 	 45.6576 	 12.2022 	 3.6000
  0.6000 	 1.4000 	 3.0297 	 30.1204 	 1.9134 	 29.0804 	 2.3405 	 40.5114 	 39.2007 	 11.4311 	 3.6000
  0.6000 	 1.5000 	 3.1211 	 29.6660 	 1.8111 	 32.2052 	 2.2882 	 42.4620 	 32.5130 	 10.2568 	 3.6000
  0.6000 	 1.0000 	 2.4283 	 34.2233 	 2.5664 	 17.4218 	 2.7546 	 29.7226 	 65.6796 	 12.3008 	 3.7000
  0.6000 	 1.1000 	 2.6075 	 32.9912 	 2.3746 	 20.2020 	 2.6292 	 32.6846 	 58.8075 	 12.4826 	 3.7000
  0.6000 	 1.2000 	 2.7569 	 32.0602 	 2.2132 	 22.9769 	 2.5298 	 35.3430 	 52.1823 	 12.3661 	 3.7000
  0.6000 	 1.3000 	 2.8833 	 31.3312 	 2.0753 	 25.8002 	 2.4496 	 37.7383 	 45.6809 	 11.9381 	 3.7000
  0.6000 	 1.4000 	 2.9916 	 30.7444 	 1.9558 	 28.7356 	 2.3840 	 39.9041 	 39.1506 	 11.1684 	 3.7000
  0.6000 	 1.5000 	 3.0855 	 30.2616 	 1.8511 	 31.8761 	 2.3298 	 41.8686 	 32.3663 	 9.9926 	 3.7000
  0.6000 	 1.0000 	 2.3750 	 35.0968 	 2.6230 	 17.0189 	 2.8108 	 29.0658 	 65.8450 	 12.0470 	 3.8000
  0.6000 	 1.1000 	 2.5591 	 33.7715 	 2.4266 	 19.8162 	 2.6812 	 32.0434 	 58.9327 	 12.2272 	 3.8000
  0.6000 	 1.2000 	 2.7125 	 32.7748 	 2.2614 	 22.6049 	 2.5783 	 34.7164 	 52.2592 	 12.1115 	 3.8000
  0.6000 	 1.3000 	 2.8423 	 31.9971 	 2.1202 	 25.4406 	 2.4953 	 37.1260 	 45.6995 	 11.6854 	 3.8000
  0.6000 	 1.4000 	 2.9536 	 31.3728 	 1.9979 	 28.3886 	 2.4274 	 39.3058 	 39.0969 	 10.9172 	 3.8000
  0.6000 	 1.5000 	 3.0500 	 30.8603 	 1.8908 	 31.5444 	 2.3712 	 41.2841 	 32.2166 	 9.7397 	 3.8000
  0.6000 	 1.0000 	 2.3217 	 35.9905 	 2.6796 	 16.6138 	 2.8669 	 28.4176 	 66.0027 	 11.8038 	 3.9000
  0.6000 	 1.1000 	 2.5106 	 34.5654 	 2.4785 	 19.4285 	 2.7331 	 31.4111 	 59.0513 	 11.9826 	 3.9000
  0.6000 	 1.2000 	 2.6681 	 33.4990 	 2.3094 	 22.2311 	 2.6267 	 34.0988 	 52.3307 	 11.8677 	 3.9000
  0.6000 	 1.3000 	 2.8013 	 32.6698 	 2.1649 	 25.0791 	 2.5408 	 36.5225 	 45.7139 	 11.4434 	 3.9000
  0.6000 	 1.4000 	 2.9155 	 32.0061 	 2.0399 	 28.0394 	 2.4706 	 38.7161 	 39.0400 	 10.6767 	 3.9000
  0.6000 	 1.5000 	 3.0145 	 31.4625 	 1.9304 	 31.2104 	 2.4124 	 40.7079 	 32.0643 	 9.4975 	 3.9000
  0.6000 	 1.6000 	 3.1011 	 31.0089 	 1.8336 	 34.7813 	 2.3637 	 42.5220 	 24.3065 	 7.7407 	 3.9000
  0.6000 	 1.0000 	 2.2684 	 36.9061 	 2.7360 	 16.2065 	 2.9229 	 27.7773 	 66.1533 	 11.5708 	 4.0000
  0.6000 	 1.1000 	 2.4622 	 35.3740 	 2.5302 	 19.0390 	 2.7848 	 30.7871 	 59.1639 	 11.7481 	 4.0000
  0.6000 	 1.2000 	 2.6237 	 34.2334 	 2.3573 	 21.8558 	 2.6749 	 33.4896 	 52.3972 	 11.6339 	 4.0000
  0.6000 	 1.3000 	 2.7603 	 33.3499 	 2.2095 	 24.7160 	 2.5862 	 35.9274 	 45.7245 	 11.2114 	 4.0000
  0.6000 	 1.4000 	 2.8774 	 32.6447 	 2.0817 	 27.6885 	 2.5136 	 38.1346 	 38.9804 	 10.4461 	 4.0000
  0.6000 	 1.5000 	 2.9789 	 32.0685 	 1.9698 	 30.8744 	 2.4534 	 40.1397 	 31.9098 	 9.2652 	 4.0000
  0.6000 	 1.6000 	 3.0678 	 31.5885 	 1.8710 	 34.4713 	 2.4031 	 41.9666 	 24.0019 	 7.4954 	 4.0000
  0.6000 	 1.0000 	 2.2151 	 37.8453 	 2.7923 	 15.7971 	 2.9789 	 27.1442 	 66.2971 	 11.3472 	 4.1000
  0.6000 	 1.1000 	 2.4138 	 36.1983 	 2.5819 	 18.6479 	 2.8364 	 30.1709 	 59.2709 	 11.5230 	 4.1000
  0.6000 	 1.2000 	 2.5793 	 34.9788 	 2.4050 	 21.4789 	 2.7231 	 32.8884 	 52.4593 	 11.4095 	 4.1000
  0.6000 	 1.3000 	 2.7193 	 34.0379 	 2.2540 	 24.3514 	 2.6315 	 35.3402 	 45.7317 	 10.9888 	 4.1000
  0.6000 	 1.4000 	 2.8394 	 33.2891 	 2.1234 	 27.3359 	 2.5565 	 37.5609 	 38.9183 	 10.2250 	 4.1000
  0.6000 	 1.5000 	 2.9434 	 32.6787 	 2.0091 	 30.5366 	 2.4943 	 39.5790 	 31.7535 	 9.0424 	 4.1000
  0.6000 	 1.6000 	 3.0345 	 32.1712 	 1.9081 	 34.1594 	 2.4423 	 41.4187 	 23.6939 	 7.2592 	 4.1000
  0.6000 	 1.0000 	 2.1618 	 38.8100 	 2.8484 	 15.3853 	 3.0347 	 26.5177 	 66.4348 	 11.1324 	 4.2000
  0.6000 	 1.1000 	 2.3653 	 37.0395 	 2.6333 	 18.2551 	 2.8879 	 29.5619 	 59.3726 	 11.3068 	 4.2000
  0.6000 	 1.2000 	 2.5349 	 35.7360 	 2.4526 	 21.1006 	 2.7710 	 32.2945 	 52.5172 	 11.1939 	 4.2000
  0.6000 	 1.3000 	 2.6783 	 34.7343 	 2.2983 	 23.9854 	 2.6766 	 34.7604 	 45.7357 	 10.7750 	 4.2000
  0.6000 	 1.4000 	 2.8013 	 33.9397 	 2.1649 	 26.9818 	 2.5992 	 36.9945 	 38.8541 	 10.0126 	 4.2000
  0.6000 	 1.5000 	 2.9079 	 33.2935 	 2.0482 	 30.1972 	 2.5350 	 39.0255 	 31.5957 	 8.8284 	 4.2000
  0.6000 	 1.6000 	 3.0012 	 32.7573 	 1.9452 	 33.8461 	 2.4813 	 40.8777 	 23.3829 	 7.0316 	 4.2000
  0.6000 	 1.0000 	 2.1086 	 39.8021 	 2.9045 	 14.9712 	 3.0904 	 25.8972 	 66.5666 	 10.9260 	 4.3000
  0.6000 	 1.1000 	 2.3169 	 37.8989 	 2.6847 	 17.8606 	 2.9393 	 28.9595 	 59.4695 	 11.0989 	 4.3000
  0.6000 	 1.2000 	 2.4905 	 36.5058 	 2.5001 	 20.7210 	 2.8189 	 31.7076 	 52.5712 	 10.9866 	 4.3000
  0.6000 	 1.3000 	 2.6373 	 35.4399 	 2.3425 	 23.6182 	 2.7216 	 34.1876 	 45.7369 	 10.5694 	 4.3000
  0.6000 	 1.4000 	 2.7633 	 34.5970 	 2.2063 	 26.6265 	 2.6418 	 36.4351 	 38.7880 	 9.8086 	 4.3000
  0.6000 	 1.5000 	 2.8724 	 33.9132 	 2.0872 	 29.8563 	 2.5756 	 38.4789 	 31.4366 	 8.6226 	 4.3000
  0.6000 	 1.6000 	 2.9678 	 33.3470 	 1.9821 	 33.5313 	 2.5201 	 40.3434 	 23.0691 	 6.8121 	 4.3000
  0.6000 	 1.0000 	 2.0553 	 40.8239 	 2.9604 	 14.5546 	 3.1461 	 25.2819 	 66.6930 	 10.7273 	 4.4000
  0.6000 	 1.1000 	 2.2684 	 38.7776 	 2.7360 	 17.4645 	 2.9906 	 28.3633 	 59.5618 	 10.8988 	 4.4000
  0.6000 	 1.2000 	 2.4461 	 37.2891 	 2.5475 	 20.3401 	 2.8667 	 31.1273 	 52.6217 	 10.7872 	 4.4000
  0.6000 	 1.3000 	 2.5964 	 36.1551 	 2.3866 	 23.2498 	 2.7664 	 33.6215 	 45.7356 	 10.3717 	 4.4000
  0.6000 	 1.4000 	 2.7252 	 35.2614 	 2.2476 	 26.2699 	 2.6842 	 35.8822 	 38.7203 	 9.6123 	 4.4000
  0.6000 	 1.5000 	 2.8368 	 34.5383 	 2.1261 	 29.5140 	 2.6160 	 37.9388 	 31.2764 	 8.4247 	 4.4000
  0.6000 	 1.6000 	 2.9345 	 33.9407 	 2.0189 	 33.2153 	 2.5588 	 39.8154 	 22.7525 	 6.6001 	 4.4000
  0.6000 	 1.0000 	 2.0020 	 41.8778 	 3.0163 	 14.1352 	 3.2016 	 24.6713 	 66.8142 	 10.5361 	 4.5000
  0.6000 	 1.1000 	 2.2200 	 39.6772 	 2.7871 	 17.0666 	 3.0418 	 27.7727 	 59.6500 	 10.7062 	 4.5000
  0.6000 	 1.2000 	 2.4016 	 38.0867 	 2.5947 	 19.9579 	 2.9143 	 30.5530 	 52.6689 	 10.5951 	 4.5000
  0.6000 	 1.3000 	 2.5554 	 36.8808 	 2.4306 	 22.8802 	 2.8112 	 33.0616 	 45.7320 	 10.1814 	 4.5000
  0.6000 	 1.4000 	 2.6871 	 35.9335 	 2.2888 	 25.9123 	 2.7265 	 35.3357 	 38.6513 	 9.4234 	 4.5000
  0.6000 	 1.5000 	 2.8013 	 35.1691 	 2.1649 	 29.1706 	 2.6563 	 37.4048 	 31.1155 	 8.2342 	 4.5000
  0.6000 	 1.6000 	 2.9012 	 34.5388 	 2.0556 	 32.8982 	 2.5974 	 39.2936 	 22.4333 	 6.3953 	 4.5000
  0.7000 	 1.0000 	 2.8546 	 27.8030 	 2.0443 	 18.0913 	 2.2996 	 35.3803 	 60.2197 	 17.2891 	 2.9000
  0.7000 	 1.1000 	 2.9951 	 27.1303 	 1.8886 	 20.6672 	 2.2077 	 38.2191 	 54.4536 	 17.5518 	 2.9000
  0.7000 	 1.2000 	 3.1122 	 26.6056 	 1.7569 	 23.2585 	 2.1351 	 40.7531 	 48.9838 	 17.4947 	 2.9000
  0.7000 	 1.3000 	 3.2112 	 26.1846 	 1.6438 	 25.9047 	 2.0768 	 43.0233 	 43.7264 	 17.1187 	 2.9000
  0.7000 	 1.4000 	 3.2961 	 25.8392 	 1.5453 	 28.6507 	 2.0294 	 45.0642 	 38.5920 	 16.4135 	 2.9000
  0.7000 	 1.5000 	 3.3697 	 25.5506 	 1.4585 	 31.5548 	 1.9903 	 46.9054 	 33.4743 	 15.3506 	 2.9000
  0.7000 	 1.6000 	 3.4341 	 25.3060 	 1.3813 	 34.7041 	 1.9578 	 48.5722 	 28.2272 	 13.8681 	 2.9000
  0.7000 	 1.0000 	 2.8013 	 28.5616 	 2.1028 	 17.7805 	 2.3571 	 34.6256 	 60.5189 	 16.8451 	 3.0000
  0.7000 	 1.1000 	 2.9467 	 27.8337 	 1.9426 	 20.3748 	 2.2610 	 37.4805 	 54.7121 	 17.1057 	 3.0000
  0.7000 	 1.2000 	 3.0678 	 27.2679 	 1.8071 	 22.9816 	 2.1851 	 40.0315 	 49.1953 	 17.0499 	 3.0000
  0.7000 	 1.3000 	 3.1702 	 26.8152 	 1.6908 	 25.6413 	 2.1242 	 42.3189 	 43.8842 	 16.6776 	 3.0000
  0.7000 	 1.4000 	 3.2581 	 26.4446 	 1.5896 	 28.3996 	 2.0746 	 44.3771 	 38.6882 	 15.9775 	 3.0000
  0.7000 	 1.5000 	 3.3342 	 26.1356 	 1.5005 	 31.3159 	 2.0337 	 46.2354 	 33.4980 	 14.9196 	 3.0000
  0.7000 	 1.6000 	 3.4008 	 25.8739 	 1.4214 	 34.4792 	 1.9996 	 47.9190 	 28.1605 	 13.4398 	 3.0000
  0.7000 	 1.0000 	 2.7480 	 29.3305 	 2.1610 	 17.4616 	 2.4143 	 33.8865 	 60.8004 	 16.4249 	 3.1000
  0.7000 	 1.1000 	 2.8982 	 28.5439 	 1.9962 	 20.0737 	 2.3142 	 36.7571 	 54.9542 	 16.6834 	 3.1000
  0.7000 	 1.2000 	 3.0234 	 27.9346 	 1.8570 	 22.6957 	 2.2350 	 39.3244 	 49.3914 	 16.6287 	 3.1000
  0.7000 	 1.3000 	 3.1293 	 27.4485 	 1.7376 	 25.3687 	 2.1714 	 41.6285 	 44.0276 	 16.2598 	 3.1000
  0.7000 	 1.4000 	 3.2200 	 27.0514 	 1.6337 	 28.1392 	 2.1195 	 43.7034 	 38.7707 	 15.5643 	 3.1000
  0.7000 	 1.5000 	 3.2987 	 26.7208 	 1.5423 	 31.0675 	 2.0768 	 45.5783 	 33.5082 	 14.5108 	 3.1000
  0.7000 	 1.6000 	 3.3675 	 26.4413 	 1.4611 	 34.2453 	 2.0411 	 47.2780 	 28.0800 	 13.0327 	 3.1000
  0.7000 	 1.0000 	 2.6947 	 30.1108 	 2.2190 	 17.1353 	 2.4714 	 33.1618 	 61.0660 	 16.0264 	 3.2000
  0.7000 	 1.1000 	 2.8498 	 29.2615 	 2.0496 	 19.7651 	 2.3671 	 36.0478 	 55.1813 	 16.2828 	 3.2000
  0.7000 	 1.2000 	 2.9789 	 28.6062 	 1.9066 	 22.4019 	 2.2846 	 38.6310 	 49.5736 	 16.2291 	 3.2000
  0.7000 	 1.3000 	 3.0883 	 28.0848 	 1.7840 	 25.0879 	 2.2183 	 40.9513 	 44.1580 	 15.8634 	 3.2000
  0.7000 	 1.4000 	 3.1820 	 27.6598 	 1.6774 	 27.8703 	 2.1642 	 43.0424 	 38.8410 	 15.1721 	 3.2000
  0.7000 	 1.5000 	 3.2632 	 27.3068 	 1.5837 	 30.8107 	 2.1195 	 44.9333 	 33.5067 	 14.1226 	 3.2000
  0.7000 	 1.6000 	 3.3342 	 27.0087 	 1.5005 	 34.0033 	 2.0823 	 46.6487 	 27.9873 	 12.6454 	 3.2000
  0.7000 	 1.0000 	 2.6414 	 30.9036 	 2.2767 	 16.8025 	 2.5283 	 32.4506 	 61.3168 	 15.6480 	 3.3000
  0.7000 	 1.1000 	 2.8013 	 29.9875 	 2.1028 	 19.4497 	 2.4199 	 35.3519 	 55.3949 	 15.9022 	 3.3000
  0.7000 	 1.2000 	 2.9345 	 29.2833 	 1.9560 	 22.1011 	 2.3340 	 37.9505 	 49.7433 	 15.8495 	 3.3000
  0.7000 	 1.3000 	 3.0473 	 28.7247 	 1.8302 	 24.7998 	 2.2649 	 40.2865 	 44.2769 	 15.4867 	 3.3000
  0.7000 	 1.4000 	 3.1439 	 28.2705 	 1.7209 	 27.5939 	 2.2086 	 42.3933 	 38.9004 	 14.7994 	 3.3000
  0.7000 	 1.5000 	 3.2276 	 27.8939 	 1.6249 	 30.5465 	 2.1620 	 44.2997 	 33.4946 	 13.7533 	 3.3000
  0.7000 	 1.6000 	 3.3009 	 27.5763 	 1.5397 	 33.7541 	 2.1232 	 46.0303 	 27.8838 	 12.2762 	 3.3000
  0.7000 	 1.0000 	 2.5882 	 31.7101 	 2.3343 	 16.4638 	 2.5851 	 31.7519 	 61.5542 	 15.2881 	 3.4000
  0.7000 	 1.1000 	 2.7529 	 30.7226 	 2.1557 	 19.1282 	 2.4725 	 34.6683 	 55.5960 	 15.5401 	 3.4000
  0.7000 	 1.2000 	 2.8901 	 29.9667 	 2.0052 	 21.7940 	 2.3832 	 37.2822 	 49.9015 	 15.4882 	 3.4000
  0.7000 	 1.3000 	 3.0063 	 29.3688 	 1.8761 	 24.5052 	 2.3114 	 39.6334 	 44.3852 	 15.1282 	 3.4000
  0.7000 	 1.4000 	 3.1058 	 28.8839 	 1.7641 	 27.3109 	 2.2527 	 41.7555 	 38.9502 	 14.4446 	 3.4000
  0.7000 	 1.5000 	 3.1921 	 28.4825 	 1.6658 	 30.2755 	 2.2043 	 43.6770 	 33.4733 	 13.4016 	 3.4000
  0.7000 	 1.6000 	 3.2676 	 28.1447 	 1.5786 	 33.4984 	 2.1639 	 45.4224 	 27.7707 	 11.9241 	 3.4000
  0.7000 	 1.0000 	 2.5349 	 32.5313 	 2.3916 	 16.1196 	 2.6417 	 31.0649 	 61.7792 	 14.9453 	 3.5000
  0.7000 	 1.1000 	 2.7044 	 31.4677 	 2.2085 	 18.8013 	 2.5249 	 33.9964 	 55.7857 	 15.1951 	 3.5000
  0.7000 	 1.2000 	 2.8457 	 30.6568 	 2.0541 	 21.4813 	 2.4322 	 36.6252 	 50.0494 	 15.1440 	 3.5000
  0.7000 	 1.3000 	 2.9653 	 30.0176 	 1.9219 	 24.2048 	 2.3576 	 38.9914 	 44.4841 	 14.7866 	 3.5000
  0.7000 	 1.4000 	 3.0678 	 29.5003 	 1.8071 	 27.0220 	 2.2967 	 41.1284 	 38.9912 	 14.1064 	 3.5000
  0.7000 	 1.5000 	 3.1566 	 29.0731 	 1.7064 	 29.9985 	 2.2464 	 43.0646 	 33.4438 	 13.0662 	 3.5000
  0.7000 	 1.6000 	 3.2343 	 28.7141 	 1.6172 	 33.2367 	 2.2043 	 44.8244 	 27.6492 	 11.5877 	 3.5000
  0.7000 	 1.0000 	 2.4816 	 33.3686 	 2.4488 	 15.7703 	 2.6982 	 30.3887 	 61.9928 	 14.6184 	 3.6000
  0.7000 	 1.1000 	 2.6560 	 32.2236 	 2.2610 	 18.4694 	 2.5771 	 33.3354 	 55.9650 	 14.8660 	 3.6000
  0.7000 	 1.2000 	 2.8013 	 31.3544 	 2.1028 	 21.1635 	 2.4811 	 35.9790 	 50.1878 	 14.8155 	 3.6000
  0.7000 	 1.3000 	 2.9243 	 30.6715 	 1.9674 	 23.8992 	 2.4037 	 38.3599 	 44.5743 	 14.4607 	 3.6000
  0.7000 	 1.4000 	 3.0297 	 30.1204 	 1.8499 	 26.7277 	 2.3405 	 40.5114 	 39.0244 	 13.7837 	 3.6000
  0.7000 	 1.5000 	 3.1211 	 29.6660 	 1.7469 	 29.7161 	 2.2882 	 42.4620 	 33.4070 	 12.7459 	 3.6000
  0.7000 	 1.6000 	 3.2010 	 29.2849 	 1.6556 	 32.9698 	 2.2445 	 44.2358 	 27.5201 	 11.2661 	 3.6000
  0.7000 	 1.0000 	 2.4283 	 34.2233 	 2.5058 	 15.4164 	 2.7546 	 29.7226 	 62.1959 	 14.3062 	 3.7000
  0.7000 	 1.1000 	 2.6075 	 32.9912 	 2.3134 	 18.1330 	 2.6292 	 32.6846 	 56.1346 	 14.5517 	 3.7000
  0.7000 	 1.2000 	 2.7569 	 32.0602 	 2.1513 	 20.8412 	 2.5298 	 35.3430 	 50.3175 	 14.5017 	 3.7000
  0.7000 	 1.3000 	 2.8833 	 31.3312 	 2.0127 	 23.5890 	 2.4496 	 37.7383 	 44.6568 	 14.1493 	 3.7000
  0.7000 	 1.4000 	 2.9916 	 30.7444 	 1.8925 	 26.4287 	 2.3840 	 39.9041 	 39.0505 	 13.4754 	 3.7000
  0.7000 	 1.5000 	 3.0855 	 30.2616 	 1.7871 	 29.4288 	 2.3298 	 41.8686 	 33.3637 	 12.4399 	 3.7000
  0.7000 	 1.6000 	 3.1677 	 29.8574 	 1.6938 	 32.6980 	 2.2844 	 43.6562 	 27.3843 	 10.9582 	 3.7000
  0.7000 	 1.0000 	 2.3750 	 35.0968 	 2.5626 	 15.0581 	 2.8108 	 29.0658 	 62.3891 	 14.0077 	 3.8000
  0.7000 	 1.1000 	 2.5591 	 33.7715 	 2.3656 	 17.7924 	 2.6812 	 32.0434 	 56.2954 	 14.2510 	 3.8000
  0.7000 	 1.2000 	 2.7125 	 32.7748 	 2.1997 	 20.5148 	 2.5783 	 34.7164 	 50.4392 	 14.2016 	 3.8000
  0.7000 	 1.3000 	 2.8423 	 31.9971 	 2.0578 	 23.2746 	 2.4953 	 37.1260 	 44.7322 	 13.8514 	 3.8000
  0.7000 	 1.4000 	 2.9536 	 31.3728 	 1.9349 	 26.1253 	 2.4274 	 39.3058 	 39.0704 	 13.1805 	 3.8000
  0.7000 	 1.5000 	 3.0500 	 30.8603 	 1.8271 	 29.1371 	 2.3712 	 41.2841 	 33.3145 	 12.1470 	 3.8000
  0.7000 	 1.6000 	 3.1344 	 30.4319 	 1.7317 	 32.4218 	 2.3242 	 43.0850 	 27.2426 	 10.6632 	 3.8000
  0.7000 	 1.0000 	 2.3217 	 35.9905 	 2.6193 	 14.6956 	 2.8669 	 28.4176 	 62.5733 	 13.7221 	 3.9000
  0.7000 	 1.1000 	 2.5106 	 34.5654 	 2.4176 	 17.4479 	 2.7331 	 31.4111 	 56.4480 	 13.9632 	 3.9000
  0.7000 	 1.2000 	 2.6681 	 33.4990 	 2.2479 	 20.1845 	 2.6267 	 34.0988 	 50.5536 	 13.9143 	 3.9000
  0.7000 	 1.3000 	 2.8013 	 32.6698 	 2.1028 	 22.9563 	 2.5408 	 36.5225 	 44.8011 	 13.5662 	 3.9000
  0.7000 	 1.4000 	 2.9155 	 32.0061 	 1.9771 	 25.8179 	 2.4706 	 38.7161 	 39.0846 	 12.8982 	 3.9000
  0.7000 	 1.5000 	 3.0145 	 31.4625 	 1.8670 	 28.8414 	 2.4124 	 40.7079 	 33.2602 	 11.8665 	 3.9000
  0.7000 	 1.6000 	 3.1011 	 31.0089 	 1.7695 	 32.1417 	 2.3637 	 42.5220 	 27.0956 	 10.3803 	 3.9000
  0.7000 	 1.0000 	 2.2684 	 36.9061 	 2.6758 	 14.3290 	 2.9229 	 27.7773 	 62.7491 	 13.4484 	 4.0000
  0.7000 	 1.1000 	 2.4622 	 35.3740 	 2.4695 	 17.0998 	 2.7848 	 30.7871 	 56.5930 	 13.6874 	 4.0000
  0.7000 	 1.2000 	 2.6237 	 34.2334 	 2.2959 	 19.8507 	 2.6749 	 33.4896 	 50.6613 	 13.6389 	 4.0000
  0.7000 	 1.3000 	 2.7603 	 33.3499 	 2.1476 	 22.6345 	 2.5862 	 35.9274 	 44.8641 	 13.2929 	 4.0000
  0.7000 	 1.4000 	 2.8774 	 32.6447 	 2.0192 	 25.5071 	 2.5136 	 38.1346 	 39.0936 	 12.6275 	 4.0000
  0.7000 	 1.5000 	 2.9789 	 32.0685 	 1.9066 	 28.5420 	 2.4534 	 40.1397 	 33.2013 	 11.5977 	 4.0000
  0.7000 	 1.6000 	 3.0678 	 31.5885 	 1.8071 	 31.8579 	 2.4031 	 41.9666 	 26.9438 	 10.1087 	 4.0000
  0.7000 	 1.0000 	 2.2151 	 37.8453 	 2.7322 	 13.9584 	 2.9789 	 27.1442 	 62.9170 	 13.1858 	 4.1000
  0.7000 	 1.1000 	 2.4138 	 36.1983 	 2.5213 	 16.7482 	 2.8364 	 30.1709 	 56.7309 	 13.4227 	 4.1000
  0.7000 	 1.2000 	 2.5793 	 34.9788 	 2.3439 	 19.5137 	 2.7231 	 32.8884 	 50.7627 	 13.3746 	 4.1000
  0.7000 	 1.3000 	 2.7193 	 34.0379 	 2.1923 	 22.3095 	 2.6315 	 35.3402 	 44.9218 	 13.0307 	 4.1000
  0.7000 	 1.4000 	 2.8394 	 33.2891 	 2.0611 	 25.1929 	 2.5565 	 37.5609 	 39.0980 	 12.3679 	 4.1000
  0.7000 	 1.5000 	 2.9434 	 32.6787 	 1.9462 	 28.2393 	 2.4943 	 39.5790 	 33.1383 	 11.3397 	 4.1000
  0.7000 	 1.6000 	 3.0345 	 32.1712 	 1.8446 	 31.5709 	 2.4423 	 41.4187 	 26.7877 	 9.8478 	 4.1000
  0.7000 	 1.0000 	 2.1618 	 38.8100 	 2.7885 	 13.5839 	 3.0347 	 26.5177 	 63.0775 	 12.9338 	 4.2000
  0.7000 	 1.1000 	 2.3653 	 37.0395 	 2.5729 	 16.3933 	 2.8879 	 29.5619 	 56.8623 	 13.1686 	 4.2000
  0.7000 	 1.2000 	 2.5349 	 35.7360 	 2.3916 	 19.1737 	 2.7710 	 32.2945 	 50.8584 	 13.1209 	 4.2000
  0.7000 	 1.3000 	 2.6783 	 34.7343 	 2.2368 	 21.9815 	 2.6766 	 34.7604 	 44.9745 	 12.7789 	 4.2000
  0.7000 	 1.4000 	 2.8013 	 33.9397 	 2.1028 	 24.8758 	 2.5992 	 36.9945 	 39.0981 	 12.1186 	 4.2000
  0.7000 	 1.5000 	 2.9079 	 33.2935 	 1.9855 	 27.9336 	 2.5350 	 39.0255 	 33.0717 	 11.0919 	 4.2000
  0.7000 	 1.6000 	 3.0012 	 32.7573 	 1.8819 	 31.2808 	 2.4813 	 40.8777 	 26.6279 	 9.5969 	 4.2000
  0.7000 	 1.0000 	 2.1086 	 39.8021 	 2.8447 	 13.2055 	 3.0904 	 25.8972 	 63.2313 	 12.6916 	 4.3000
  0.7000 	 1.1000 	 2.3169 	 37.8989 	 2.6244 	 16.0352 	 2.9393 	 28.9595 	 56.9876 	 12.9244 	 4.3000
  0.7000 	 1.2000 	 2.4905 	 36.5058 	 2.4393 	 18.8307 	 2.8189 	 31.7076 	 50.9488 	 12.8769 	 4.3000
  0.7000 	 1.3000 	 2.6373 	 35.4399 	 2.2812 	 21.6508 	 2.7216 	 34.1876 	 45.0226 	 12.5368 	 4.3000
  0.7000 	 1.4000 	 2.7633 	 34.5970 	 2.1444 	 24.5560 	 2.6418 	 36.4351 	 39.0945 	 11.8791 	 4.3000
  0.7000 	 1.5000 	 2.8724 	 33.9132 	 2.0248 	 27.6252 	 2.5756 	 38.4789 	 33.0017 	 10.8537 	 4.3000
  0.7000 	 1.6000 	 2.9678 	 33.3470 	 1.9190 	 30.9879 	 2.5201 	 40.3434 	 26.4647 	 9.3555 	 4.3000
  0.7000 	 1.7000 	 3.0521 	 32.8703 	 1.8248 	 34.9343 	 2.4732 	 42.0492 	 18.8370 	 7.1149 	 4.3000
  0.7000 	 1.0000 	 2.0553 	 40.8239 	 2.9007 	 12.8232 	 3.1461 	 25.2819 	 63.3786 	 12.4587 	 4.4000
  0.7000 	 1.1000 	 2.2684 	 38.7776 	 2.6758 	 15.6739 	 2.9906 	 28.3633 	 57.1072 	 12.6894 	 4.4000
  0.7000 	 1.2000 	 2.4461 	 37.2891 	 2.4868 	 18.4850 	 2.8667 	 31.1273 	 51.0343 	 12.6423 	 4.4000
  0.7000 	 1.3000 	 2.5964 	 36.1551 	 2.3254 	 21.3175 	 2.7664 	 33.6215 	 45.0666 	 12.3040 	 4.4000
  0.7000 	 1.4000 	 2.7252 	 35.2614 	 2.1859 	 24.2336 	 2.6842 	 35.8822 	 39.0874 	 11.6486 	 4.4000
  0.7000 	 1.5000 	 2.8368 	 34.5383 	 2.0638 	 27.3141 	 2.6160 	 37.9388 	 32.9289 	 10.6246 	 4.4000
  0.7000 	 1.6000 	 2.9345 	 33.9407 	 1.9560 	 30.6925 	 2.5588 	 39.8154 	 26.2985 	 9.1230 	 4.4000
  0.7000 	 1.7000 	 3.0207 	 33.4385 	 1.8599 	 34.6732 	 2.5104 	 41.5330 	 18.5034 	 6.8598 	 4.4000
  0.7000 	 1.0000 	 2.0020 	 41.8778 	 2.9567 	 12.4368 	 3.2016 	 24.6713 	 63.5198 	 12.2346 	 4.5000
  0.7000 	 1.1000 	 2.2200 	 39.6772 	 2.7271 	 15.3095 	 3.0418 	 27.7727 	 57.2214 	 12.4632 	 4.5000
  0.7000 	 1.2000 	 2.4016 	 38.0867 	 2.5342 	 18.1366 	 2.9143 	 30.5530 	 51.1152 	 12.4164 	 4.5000
  0.7000 	 1.3000 	 2.5554 	 36.8808 	 2.3696 	 20.9817 	 2.8112 	 33.0616 	 45.1067 	 12.0799 	 4.5000
  0.7000 	 1.4000 	 2.6871 	 35.9335 	 2.2273 	 23.9089 	 2.7265 	 35.3357 	 39.0772 	 11.4268 	 4.5000
  0.7000 	 1.5000 	 2.8013 	 35.1691 	 2.1028 	 27.0007 	 2.6563 	 37.4048 	 32.8535 	 10.4041 	 4.5000
  0.7000 	 1.6000 	 2.9012 	 34.5388 	 1.9929 	 30.3947 	 2.5974 	 39.2936 	 26.1296 	 8.8989 	 4.5000
  0.7000 	 1.7000 	 2.9894 	 34.0099 	 1.8950 	 34.4105 	 2.5475 	 41.0227 	 18.1631 	 6.6122 	 4.5000
  0.8000 	 1.0000 	 2.8546 	 27.8030 	 1.9755 	 15.6213 	 2.2996 	 35.3803 	 56.5960 	 19.7590 	 2.9000
  0.8000 	 1.1000 	 2.9951 	 27.1303 	 1.8187 	 18.1263 	 2.2077 	 38.2191 	 51.3538 	 20.0928 	 2.9000
  0.8000 	 1.2000 	 3.1122 	 26.6056 	 1.6859 	 20.6576 	 2.1351 	 40.7531 	 46.3920 	 20.0955 	 2.9000
  0.8000 	 1.3000 	 3.2112 	 26.1846 	 1.5716 	 23.2537 	 2.0768 	 43.0233 	 41.6412 	 19.7696 	 2.9000
  0.8000 	 1.4000 	 3.2961 	 25.8392 	 1.4718 	 25.9574 	 2.0294 	 45.0642 	 37.0286 	 19.1068 	 2.9000
  0.8000 	 1.5000 	 3.3697 	 25.5506 	 1.3838 	 28.8227 	 1.9903 	 46.9054 	 32.4714 	 18.0827 	 2.9000
  0.8000 	 1.6000 	 3.4341 	 25.3060 	 1.3052 	 31.9263 	 1.9578 	 48.5722 	 27.8632 	 16.6459 	 2.9000
  0.8000 	 1.0000 	 2.8013 	 28.5616 	 2.0343 	 15.3820 	 2.3571 	 34.6256 	 56.9409 	 19.2436 	 3.0000
  0.8000 	 1.1000 	 2.9467 	 27.8337 	 1.8731 	 17.9063 	 2.2610 	 37.4805 	 51.6672 	 19.5742 	 3.0000
  0.8000 	 1.2000 	 3.0678 	 27.2679 	 1.7366 	 20.4531 	 2.1851 	 40.0315 	 46.6686 	 19.5783 	 3.0000
  0.8000 	 1.3000 	 3.1702 	 26.8152 	 1.6191 	 23.0614 	 2.1242 	 42.3189 	 41.8761 	 19.2575 	 3.0000
  0.8000 	 1.4000 	 3.2581 	 26.4446 	 1.5168 	 25.7741 	 2.0746 	 44.3771 	 37.2166 	 18.6031 	 3.0000
  0.8000 	 1.5000 	 3.3342 	 26.1356 	 1.4265 	 28.6454 	 2.0337 	 46.2354 	 32.6060 	 17.5901 	 3.0000
  0.8000 	 1.6000 	 3.4008 	 25.8739 	 1.3460 	 31.7525 	 1.9996 	 47.9190 	 27.9349 	 16.1665 	 3.0000
  0.8000 	 1.0000 	 2.7480 	 29.3305 	 2.0929 	 15.1303 	 2.4143 	 33.8865 	 57.2652 	 18.7562 	 3.1000
  0.8000 	 1.1000 	 2.8982 	 28.5439 	 1.9271 	 17.6734 	 2.3142 	 36.7571 	 51.9606 	 19.0837 	 3.1000
  0.8000 	 1.2000 	 3.0234 	 27.9346 	 1.7869 	 20.2354 	 2.2350 	 39.3244 	 46.9259 	 19.0890 	 3.1000
  0.8000 	 1.3000 	 3.1293 	 27.4485 	 1.6664 	 22.8557 	 2.1714 	 41.6285 	 42.0921 	 18.7728 	 3.1000
  0.8000 	 1.4000 	 3.2200 	 27.0514 	 1.5613 	 25.5776 	 2.1195 	 43.7034 	 37.3859 	 18.1259 	 3.1000
  0.8000 	 1.5000 	 3.2987 	 26.7208 	 1.4688 	 28.4555 	 2.0768 	 45.5783 	 32.7218 	 17.1228 	 3.1000
  0.8000 	 1.6000 	 3.3675 	 26.4413 	 1.3864 	 31.5674 	 2.0411 	 47.2780 	 27.9871 	 15.7106 	 3.1000
  0.8000 	 1.0000 	 2.6947 	 30.1108 	 2.1511 	 14.8674 	 2.4714 	 33.1618 	 57.5708 	 18.2944 	 3.2000
  0.8000 	 1.1000 	 2.8498 	 29.2615 	 1.9809 	 17.4290 	 2.3671 	 36.0478 	 52.2361 	 18.6189 	 3.2000
  0.8000 	 1.2000 	 2.9789 	 28.6062 	 1.8369 	 20.0059 	 2.2846 	 38.6310 	 47.1657 	 18.6251 	 3.2000
  0.8000 	 1.3000 	 3.0883 	 28.0848 	 1.7132 	 22.6381 	 2.2183 	 40.9513 	 42.2912 	 18.3132 	 3.2000
  0.8000 	 1.4000 	 3.1820 	 27.6598 	 1.6056 	 25.3693 	 2.1642 	 43.0424 	 37.5385 	 17.6731 	 3.2000
  0.8000 	 1.5000 	 3.2632 	 27.3068 	 1.5108 	 28.2544 	 2.1195 	 44.9333 	 32.8208 	 16.6789 	 3.2000
  0.8000 	 1.6000 	 3.3342 	 27.0087 	 1.4265 	 31.3720 	 2.0823 	 46.6487 	 28.0219 	 15.2766 	 3.2000
  0.8000 	 1.7000 	 3.3969 	 26.7536 	 1.3508 	 34.8535 	 2.0509 	 48.2098 	 22.9579 	 13.3563 	 3.2000
  0.8000 	 1.0000 	 2.6414 	 30.9036 	 2.2092 	 14.5943 	 2.5283 	 32.4506 	 57.8593 	 17.8563 	 3.3000
  0.8000 	 1.1000 	 2.8013 	 29.9875 	 2.0343 	 17.1742 	 2.4199 	 35.3519 	 52.4950 	 18.1777 	 3.3000
  0.8000 	 1.2000 	 2.9345 	 29.2833 	 1.8866 	 19.7658 	 2.3340 	 37.9505 	 47.3898 	 18.1847 	 3.3000
  0.8000 	 1.3000 	 3.0473 	 28.7247 	 1.7598 	 22.4098 	 2.2649 	 40.2865 	 42.4750 	 17.8767 	 3.3000
  0.8000 	 1.4000 	 3.1439 	 28.2705 	 1.6495 	 25.1504 	 2.2086 	 42.3933 	 37.6762 	 17.2429 	 3.3000
  0.8000 	 1.5000 	 3.2276 	 27.8939 	 1.5525 	 28.0431 	 2.1620 	 44.2997 	 32.9049 	 16.2567 	 3.3000
  0.8000 	 1.6000 	 3.3009 	 27.5763 	 1.4662 	 31.1674 	 2.1232 	 46.0303 	 28.0412 	 14.8630 	 3.3000
  0.8000 	 1.7000 	 3.3656 	 27.3050 	 1.3888 	 34.6573 	 2.0905 	 47.6062 	 22.8928 	 12.9489 	 3.3000
  0.8000 	 1.0000 	 2.5882 	 31.7101 	 2.2669 	 14.3120 	 2.5851 	 31.7519 	 58.1321 	 17.4399 	 3.4000
  0.8000 	 1.1000 	 2.7529 	 30.7226 	 2.0876 	 16.9101 	 2.4725 	 34.6683 	 52.7390 	 17.7582 	 3.4000
  0.8000 	 1.2000 	 2.8901 	 29.9667 	 1.9361 	 19.5162 	 2.3832 	 37.2822 	 47.5995 	 17.7659 	 3.4000
  0.8000 	 1.3000 	 3.0063 	 29.3688 	 1.8062 	 22.1719 	 2.3114 	 39.6334 	 42.6450 	 17.4615 	 3.4000
  0.8000 	 1.4000 	 3.1058 	 28.8839 	 1.6932 	 24.9220 	 2.2527 	 41.7555 	 37.8005 	 16.8335 	 3.4000
  0.8000 	 1.5000 	 3.1921 	 28.4825 	 1.5938 	 27.8226 	 2.2043 	 43.6770 	 32.9756 	 15.8545 	 3.4000
  0.8000 	 1.6000 	 3.2676 	 28.1447 	 1.5056 	 30.9542 	 2.1639 	 45.4224 	 28.0469 	 14.4682 	 3.4000
  0.8000 	 1.7000 	 3.3342 	 27.8564 	 1.4265 	 34.4540 	 2.1298 	 47.0127 	 22.8124 	 12.5587 	 3.4000
  0.8000 	 1.0000 	 2.5349 	 32.5313 	 2.3245 	 14.0213 	 2.6417 	 31.0649 	 58.3905 	 17.0436 	 3.5000
  0.8000 	 1.1000 	 2.7044 	 31.4677 	 2.1406 	 16.6376 	 2.5249 	 33.9964 	 52.9693 	 17.3589 	 3.5000
  0.8000 	 1.2000 	 2.8457 	 30.6568 	 1.9853 	 19.2581 	 2.4322 	 36.6252 	 47.7961 	 17.3671 	 3.5000
  0.8000 	 1.3000 	 2.9653 	 30.0176 	 1.8522 	 21.9254 	 2.3576 	 38.9914 	 42.8024 	 17.0660 	 3.5000
  0.8000 	 1.4000 	 3.0678 	 29.5003 	 1.7366 	 24.6851 	 2.2967 	 41.1284 	 37.9126 	 16.4434 	 3.5000
  0.8000 	 1.5000 	 3.1566 	 29.0731 	 1.6349 	 27.5937 	 2.2464 	 43.0646 	 33.0344 	 15.4710 	 3.5000
  0.8000 	 1.6000 	 3.2343 	 28.7141 	 1.5447 	 30.7333 	 2.2043 	 44.8244 	 28.0403 	 14.0912 	 3.5000
  0.8000 	 1.7000 	 3.3029 	 28.4081 	 1.4638 	 34.2441 	 2.1688 	 46.4287 	 22.7184 	 12.1846 	 3.5000
  0.8000 	 1.0000 	 2.4816 	 33.3686 	 2.3819 	 13.7229 	 2.6982 	 30.3887 	 58.6356 	 16.6659 	 3.6000
  0.8000 	 1.1000 	 2.6560 	 32.2236 	 2.1934 	 16.3573 	 2.5771 	 33.3354 	 53.1869 	 16.9781 	 3.6000
  0.8000 	 1.2000 	 2.8013 	 31.3544 	 2.0343 	 18.9922 	 2.4811 	 35.9790 	 47.9807 	 16.9868 	 3.6000
  0.8000 	 1.3000 	 2.9243 	 30.6715 	 1.8981 	 21.6711 	 2.4037 	 38.3599 	 42.9485 	 16.6888 	 3.6000
  0.8000 	 1.4000 	 3.0297 	 30.1204 	 1.7797 	 24.4403 	 2.3405 	 40.5114 	 38.0138 	 16.0712 	 3.6000
  0.8000 	 1.5000 	 3.1211 	 29.6660 	 1.6758 	 27.3572 	 2.2882 	 42.4620 	 33.0825 	 15.1048 	 3.6000
  0.8000 	 1.6000 	 3.2010 	 29.2849 	 1.5835 	 30.5052 	 2.2445 	 44.2358 	 28.0227 	 13.7306 	 3.6000
  0.8000 	 1.7000 	 3.2715 	 28.9605 	 1.5009 	 34.0282 	 2.2076 	 45.8537 	 22.6121 	 11.8255 	 3.6000
  0.8000 	 1.0000 	 2.4283 	 34.2233 	 2.4391 	 13.4172 	 2.7546 	 29.7226 	 58.8684 	 16.3054 	 3.7000
  0.8000 	 1.1000 	 2.6075 	 32.9912 	 2.2460 	 16.0700 	 2.6292 	 32.6846 	 53.3930 	 16.6147 	 3.7000
  0.8000 	 1.2000 	 2.7569 	 32.0602 	 2.0831 	 18.7192 	 2.5298 	 35.3430 	 48.1544 	 16.6238 	 3.7000
  0.8000 	 1.3000 	 2.8833 	 31.3312 	 1.9437 	 21.4097 	 2.4496 	 37.7383 	 43.0842 	 16.3286 	 3.7000
  0.8000 	 1.4000 	 2.9916 	 30.7444 	 1.8226 	 24.1885 	 2.3840 	 39.9041 	 38.1051 	 15.7156 	 3.7000
  0.8000 	 1.5000 	 3.0855 	 30.2616 	 1.7164 	 27.1138 	 2.3298 	 41.8686 	 33.1209 	 14.7548 	 3.7000
  0.8000 	 1.6000 	 3.1677 	 29.8574 	 1.6221 	 30.2707 	 2.2844 	 43.6562 	 27.9953 	 13.3855 	 3.7000
  0.8000 	 1.7000 	 3.2402 	 29.5138 	 1.5378 	 33.8067 	 2.2462 	 45.2874 	 22.4947 	 11.4807 	 3.7000
  0.8000 	 1.0000 	 2.3750 	 35.0968 	 2.4961 	 13.1048 	 2.8108 	 29.0658 	 59.0900 	 15.9610 	 3.8000
  0.8000 	 1.1000 	 2.5591 	 33.7715 	 2.2984 	 15.7761 	 2.6812 	 32.0434 	 53.5883 	 16.2673 	 3.8000
  0.8000 	 1.2000 	 2.7125 	 32.7748 	 2.1317 	 18.4397 	 2.5783 	 34.7164 	 48.3180 	 16.2767 	 3.8000
  0.8000 	 1.3000 	 2.8423 	 31.9971 	 1.9891 	 21.1418 	 2.4953 	 37.1260 	 43.2104 	 15.9842 	 3.8000
  0.8000 	 1.4000 	 2.9536 	 31.3728 	 1.8653 	 23.9302 	 2.4274 	 39.3058 	 38.1874 	 15.3756 	 3.8000
  0.8000 	 1.5000 	 3.0500 	 30.8603 	 1.7567 	 26.8642 	 2.3712 	 41.2841 	 33.1506 	 14.4199 	 3.8000
  0.8000 	 1.6000 	 3.1344 	 30.4319 	 1.6605 	 30.0302 	 2.3242 	 43.0850 	 27.9591 	 13.0549 	 3.8000
  0.8000 	 1.7000 	 3.2088 	 30.0684 	 1.5744 	 33.5800 	 2.2845 	 44.7293 	 22.3673 	 11.1493 	 3.8000
  0.8000 	 1.0000 	 2.3217 	 35.9905 	 2.5529 	 12.7860 	 2.8669 	 28.4176 	 59.3010 	 15.6316 	 3.9000
  0.8000 	 1.1000 	 2.5106 	 34.5654 	 2.3506 	 15.4761 	 2.7331 	 31.4111 	 53.7738 	 15.9350 	 3.9000
  0.8000 	 1.2000 	 2.6681 	 33.4990 	 2.1802 	 18.1543 	 2.6267 	 34.0988 	 48.4724 	 15.9445 	 3.9000
  0.8000 	 1.3000 	 2.8013 	 32.6698 	 2.0343 	 20.8679 	 2.5408 	 36.5225 	 43.3280 	 15.6546 	 3.9000
  0.8000 	 1.4000 	 2.9155 	 32.0061 	 1.9079 	 23.6660 	 2.4706 	 38.7161 	 38.2615 	 15.0501 	 3.9000
  0.8000 	 1.5000 	 3.0145 	 31.4625 	 1.7969 	 26.6087 	 2.4124 	 40.7079 	 33.1725 	 14.0992 	 3.9000
  0.8000 	 1.6000 	 3.1011 	 31.0089 	 1.6986 	 29.7842 	 2.3637 	 42.5220 	 27.9150 	 12.7378 	 3.9000
  0.8000 	 1.7000 	 3.1775 	 30.6245 	 1.6108 	 33.3485 	 2.3226 	 44.1790 	 22.2308 	 10.8304 	 3.9000
  0.8000 	 1.0000 	 2.2684 	 36.9061 	 2.6096 	 12.4612 	 2.9229 	 27.7773 	 59.5022 	 15.3161 	 4.0000
  0.8000 	 1.1000 	 2.4622 	 35.3740 	 2.4027 	 15.1705 	 2.7848 	 30.7871 	 53.9501 	 15.6166 	 4.0000
  0.8000 	 1.2000 	 2.6237 	 34.2334 	 2.2284 	 17.8634 	 2.6749 	 33.4896 	 48.6182 	 15.6263 	 4.0000
  0.8000 	 1.3000 	 2.7603 	 33.3499 	 2.0794 	 20.5887 	 2.5862 	 35.9274 	 43.4376 	 15.3387 	 4.0000
  0.8000 	 1.4000 	 2.8774 	 32.6447 	 1.9502 	 23.3964 	 2.5136 	 38.1346 	 38.3282 	 14.7382 	 4.0000
  0.8000 	 1.5000 	 2.9789 	 32.0685 	 1.8369 	 26.3480 	 2.4534 	 40.1397 	 33.1873 	 13.7917 	 4.0000
  0.8000 	 1.6000 	 3.0678 	 31.5885 	 1.7366 	 29.5331 	 2.4031 	 41.9666 	 27.8637 	 12.4335 	 4.0000
  0.8000 	 1.7000 	 3.1461 	 31.1825 	 1.6470 	 33.1127 	 2.3605 	 43.6362 	 22.0859 	 10.5235 	 4.0000
  0.8000 	 1.0000 	 2.2151 	 37.8453 	 2.6662 	 12.1305 	 2.9789 	 27.1442 	 59.6944 	 15.0137 	 4.1000
  0.8000 	 1.1000 	 2.4138 	 36.1983 	 2.4546 	 14.8596 	 2.8364 	 30.1709 	 54.1179 	 15.3113 	 4.1000
  0.8000 	 1.2000 	 2.5793 	 34.9788 	 2.2766 	 17.5673 	 2.7231 	 32.8884 	 48.7561 	 15.3211 	 4.1000
  0.8000 	 1.3000 	 2.7193 	 34.0379 	 2.1243 	 20.3043 	 2.6315 	 35.3402 	 43.5399 	 15.0358 	 4.1000
  0.8000 	 1.4000 	 2.8394 	 33.2891 	 1.9923 	 23.1219 	 2.5565 	 37.5609 	 38.3880 	 14.4390 	 4.1000
  0.8000 	 1.5000 	 2.9434 	 32.6787 	 1.8767 	 26.0824 	 2.4943 	 39.5790 	 33.1956 	 13.4966 	 4.1000
  0.8000 	 1.6000 	 3.0345 	 32.1712 	 1.7743 	 29.2774 	 2.4423 	 41.4187 	 27.8059 	 12.1412 	 4.1000
  0.8000 	 1.7000 	 3.1148 	 31.7426 	 1.6829 	 32.8727 	 2.3983 	 43.1005 	 21.9336 	 10.2278 	 4.1000
  0.8000 	 1.0000 	 2.1618 	 38.8100 	 2.7226 	 11.7942 	 3.0347 	 26.5177 	 59.8781 	 14.7235 	 4.2000
  0.8000 	 1.1000 	 2.3653 	 37.0395 	 2.5064 	 14.5435 	 2.8879 	 29.5619 	 54.2778 	 15.0183 	 4.2000
  0.8000 	 1.2000 	 2.5349 	 35.7360 	 2.3245 	 17.2664 	 2.7710 	 32.2945 	 48.8868 	 15.0281 	 4.2000
  0.8000 	 1.3000 	 2.6783 	 34.7343 	 2.1690 	 20.0154 	 2.6766 	 34.7604 	 43.6355 	 14.7450 	 4.2000
  0.8000 	 1.4000 	 2.8013 	 33.9397 	 2.0343 	 22.8428 	 2.5992 	 36.9945 	 38.4417 	 14.1517 	 4.2000
  0.8000 	 1.5000 	 2.9079 	 33.2935 	 1.9163 	 25.8123 	 2.5350 	 39.0255 	 33.1981 	 13.2132 	 4.2000
  0.8000 	 1.6000 	 3.0012 	 32.7573 	 1.8119 	 29.0174 	 2.4813 	 40.8777 	 27.7424 	 11.8603 	 4.2000
  0.8000 	 1.7000 	 3.0834 	 32.3051 	 1.7187 	 32.6289 	 2.4358 	 42.5716 	 21.7743 	 9.9426 	 4.2000
  0.8000 	 1.0000 	 2.1086 	 39.8021 	 2.7789 	 11.4523 	 3.0904 	 25.8972 	 60.0539 	 14.4448 	 4.3000
  0.8000 	 1.1000 	 2.3169 	 37.8989 	 2.5581 	 14.2227 	 2.9393 	 28.9595 	 54.4304 	 14.7369 	 4.3000
  0.8000 	 1.2000 	 2.4905 	 36.5058 	 2.3723 	 16.9610 	 2.8189 	 31.7076 	 49.0107 	 14.7466 	 4.3000
  0.8000 	 1.3000 	 2.6373 	 35.4399 	 2.2136 	 19.7220 	 2.7216 	 34.1876 	 43.7248 	 14.4656 	 4.3000
  0.8000 	 1.4000 	 2.7633 	 34.5970 	 2.0762 	 22.5594 	 2.6418 	 36.4351 	 38.4897 	 13.8756 	 4.3000
  0.8000 	 1.5000 	 2.8724 	 33.9132 	 1.9558 	 25.5380 	 2.5756 	 38.4789 	 33.1953 	 12.9409 	 4.3000
  0.8000 	 1.6000 	 2.9678 	 33.3470 	 1.8494 	 28.7534 	 2.5201 	 40.3434 	 27.6736 	 11.5900 	 4.3000
  0.8000 	 1.7000 	 3.0521 	 32.8703 	 1.7544 	 32.3817 	 2.4732 	 42.0492 	 21.6086 	 9.6675 	 4.3000
  0.8000 	 1.0000 	 2.0553 	 40.8239 	 2.8351 	 11.1050 	 3.1461 	 25.2819 	 60.2223 	 14.1769 	 4.4000
  0.8000 	 1.1000 	 2.2684 	 38.7776 	 2.6096 	 13.8971 	 2.9906 	 28.3633 	 54.5761 	 14.4662 	 4.4000
  0.8000 	 1.2000 	 2.4461 	 37.2891 	 2.4200 	 16.6514 	 2.8667 	 31.1273 	 49.1282 	 14.4759 	 4.4000
  0.8000 	 1.3000 	 2.5964 	 36.1551 	 2.2581 	 19.4246 	 2.7664 	 33.6215 	 43.8085 	 14.1969 	 4.4000
  0.8000 	 1.4000 	 2.7252 	 35.2614 	 2.1179 	 22.2721 	 2.6842 	 35.8822 	 38.5325 	 13.6101 	 4.4000
  0.8000 	 1.5000 	 2.8368 	 34.5383 	 1.9951 	 25.2599 	 2.6160 	 37.9388 	 33.1877 	 12.6788 	 4.4000
  0.8000 	 1.6000 	 2.9345 	 33.9407 	 1.8866 	 28.4857 	 2.5588 	 39.8154 	 27.6000 	 11.3297 	 4.4000
  0.8000 	 1.7000 	 3.0207 	 33.4385 	 1.7898 	 32.1311 	 2.5104 	 41.5330 	 21.4371 	 9.4019 	 4.4000
  0.8000 	 1.0000 	 2.0020 	 41.8778 	 2.8912 	 10.7522 	 3.2016 	 24.6713 	 60.3837 	 13.9192 	 4.5000
  0.8000 	 1.1000 	 2.2200 	 39.6772 	 2.6611 	 13.5670 	 3.0418 	 27.7727 	 54.7154 	 14.2057 	 4.5000
  0.8000 	 1.2000 	 2.4016 	 38.0867 	 2.4676 	 16.3376 	 2.9143 	 30.5530 	 49.2400 	 14.2154 	 4.5000
  0.8000 	 1.3000 	 2.5554 	 36.8808 	 2.3024 	 19.1234 	 2.8112 	 33.0616 	 43.8869 	 13.9382 	 4.5000
  0.8000 	 1.4000 	 2.6871 	 35.9335 	 2.1594 	 21.9811 	 2.7265 	 35.3357 	 38.5705 	 13.3546 	 4.5000
  0.8000 	 1.5000 	 2.8013 	 35.1691 	 2.0343 	 24.9782 	 2.6563 	 37.4048 	 33.1757 	 12.4266 	 4.5000
  0.8000 	 1.6000 	 2.9012 	 34.5388 	 1.9238 	 28.2145 	 2.5974 	 39.2936 	 27.5221 	 11.0790 	 4.5000
  0.8000 	 1.7000 	 2.9894 	 34.0099 	 1.8252 	 31.8775 	 2.5475 	 41.0227 	 21.2603 	 9.1452 	 4.5000
  0.9000 	 1.0000 	 2.8546 	 27.8030 	 1.9010 	 13.1288 	 2.2996 	 35.3803 	 53.1149 	 22.2516 	 2.9000
  0.9000 	 1.1000 	 2.9951 	 27.1303 	 1.7429 	 15.5592 	 2.2077 	 38.2191 	 48.2532 	 22.6599 	 2.9000
  0.9000 	 1.2000 	 3.1122 	 26.6056 	 1.6087 	 18.0345 	 2.1351 	 40.7531 	 43.6572 	 22.7186 	 2.9000
  0.9000 	 1.3000 	 3.2112 	 26.1846 	 1.4929 	 20.5943 	 2.0768 	 43.0233 	 39.2651 	 22.4290 	 2.9000
  0.9000 	 1.4000 	 3.2961 	 25.8392 	 1.3916 	 23.2830 	 2.0294 	 45.0642 	 35.0129 	 21.7812 	 2.9000
  0.9000 	 1.5000 	 3.3697 	 25.5506 	 1.3019 	 26.1573 	 1.9903 	 46.9054 	 30.8287 	 20.7481 	 2.9000
  0.9000 	 1.6000 	 3.4341 	 25.3060 	 1.2217 	 29.2964 	 1.9578 	 48.5722 	 26.6224 	 19.2758 	 2.9000
  0.9000 	 1.7000 	 3.4909 	 25.0958 	 1.1492 	 32.8269 	 1.9304 	 50.0862 	 22.2628 	 17.2593 	 2.9000
  0.9000 	 1.0000 	 2.8013 	 28.5616 	 1.9602 	 12.9651 	 2.3571 	 34.6256 	 53.5074 	 21.6606 	 3.0000
  0.9000 	 1.1000 	 2.9467 	 27.8337 	 1.7978 	 15.4160 	 2.2610 	 37.4805 	 48.6225 	 22.0645 	 3.0000
  0.9000 	 1.2000 	 3.0678 	 27.2679 	 1.6600 	 17.9067 	 2.1851 	 40.0315 	 43.9989 	 22.1248 	 3.0000
  0.9000 	 1.3000 	 3.1702 	 26.8152 	 1.5411 	 20.4767 	 2.1242 	 42.3189 	 39.5757 	 21.8422 	 3.0000
  0.9000 	 1.4000 	 3.2581 	 26.4446 	 1.4373 	 23.1701 	 2.0746 	 44.3771 	 35.2892 	 21.2070 	 3.0000
  0.9000 	 1.5000 	 3.3342 	 26.1356 	 1.3455 	 26.0425 	 2.0337 	 46.2354 	 31.0672 	 20.1930 	 3.0000
  0.9000 	 1.6000 	 3.4008 	 25.8739 	 1.2634 	 29.1719 	 1.9996 	 47.9190 	 26.8188 	 18.7471 	 3.0000
  0.9000 	 1.7000 	 3.4596 	 25.6494 	 1.1894 	 32.6826 	 1.9709 	 49.4492 	 22.4104 	 16.7666 	 3.0000
  0.9000 	 1.0000 	 2.7480 	 29.3305 	 2.0192 	 12.7841 	 2.4143 	 33.8865 	 53.8761 	 21.1024 	 3.1000
  0.9000 	 1.1000 	 2.8982 	 28.5439 	 1.8522 	 15.2551 	 2.3142 	 36.7571 	 48.9681 	 21.5020 	 3.1000
  0.9000 	 1.2000 	 3.0234 	 27.9346 	 1.7108 	 17.7610 	 2.2350 	 39.3244 	 44.3170 	 21.5634 	 3.1000
  0.9000 	 1.3000 	 3.1293 	 27.4485 	 1.5889 	 20.3413 	 2.1714 	 41.6285 	 39.8626 	 21.2872 	 3.1000
  0.9000 	 1.4000 	 3.2200 	 27.0514 	 1.4826 	 23.0401 	 2.1195 	 43.7034 	 35.5414 	 20.6633 	 3.1000
  0.9000 	 1.5000 	 3.2987 	 26.7208 	 1.3886 	 25.9123 	 2.0768 	 45.5783 	 31.2807 	 19.6661 	 3.1000
  0.9000 	 1.6000 	 3.3675 	 26.4413 	 1.3047 	 29.0347 	 2.0411 	 47.2780 	 26.9886 	 18.2433 	 3.1000
  0.9000 	 1.7000 	 3.4283 	 26.2018 	 1.2291 	 32.5303 	 2.0110 	 48.8239 	 22.5288 	 16.2936 	 3.1000
  0.9000 	 1.0000 	 2.6947 	 30.1108 	 2.0778 	 12.5877 	 2.4714 	 33.1618 	 54.2231 	 20.5741 	 3.2000
  0.9000 	 1.1000 	 2.8498 	 29.2615 	 1.9064 	 15.0784 	 2.3671 	 36.0478 	 49.2923 	 20.9695 	 3.2000
  0.9000 	 1.2000 	 2.9789 	 28.6062 	 1.7613 	 17.5992 	 2.2846 	 38.6310 	 44.6139 	 21.0318 	 3.2000
  0.9000 	 1.3000 	 3.0883 	 28.0848 	 1.6364 	 20.1900 	 2.2183 	 40.9513 	 40.1283 	 20.7612 	 3.2000
  0.9000 	 1.4000 	 3.1820 	 27.6598 	 1.5274 	 22.8948 	 2.1642 	 43.0424 	 35.7720 	 20.1476 	 3.2000
  0.9000 	 1.5000 	 3.2632 	 27.3068 	 1.4313 	 25.7679 	 2.1195 	 44.9333 	 31.4720 	 19.1654 	 3.2000
  0.9000 	 1.6000 	 3.3342 	 27.0087 	 1.3455 	 28.8858 	 2.0823 	 46.6487 	 27.1350 	 17.7629 	 3.2000
  0.9000 	 1.7000 	 3.3969 	 26.7536 	 1.2683 	 32.3702 	 2.0509 	 48.2098 	 22.6215 	 15.8396 	 3.2000
  0.9000 	 1.0000 	 2.6414 	 30.9036 	 2.1361 	 12.3772 	 2.5283 	 32.4506 	 54.5503 	 20.0734 	 3.3000
  0.9000 	 1.1000 	 2.8013 	 29.9875 	 1.9602 	 14.8873 	 2.4199 	 35.3519 	 49.5971 	 20.4645 	 3.3000
  0.9000 	 1.2000 	 2.9345 	 29.2833 	 1.8114 	 17.4229 	 2.3340 	 37.9505 	 44.8916 	 20.5276 	 3.3000
  0.9000 	 1.3000 	 3.0473 	 28.7247 	 1.6835 	 20.0244 	 2.2649 	 40.2865 	 40.3748 	 20.2621 	 3.3000
  0.9000 	 1.4000 	 3.1439 	 28.2705 	 1.5719 	 22.7356 	 2.2086 	 42.3933 	 35.9832 	 19.6577 	 3.3000
  0.9000 	 1.5000 	 3.2276 	 27.8939 	 1.4735 	 25.6108 	 2.1620 	 44.2997 	 31.6434 	 18.6889 	 3.3000
  0.9000 	 1.6000 	 3.3009 	 27.5763 	 1.3859 	 28.7259 	 2.1232 	 46.0303 	 27.2605 	 17.3044 	 3.3000
  0.9000 	 1.7000 	 3.3656 	 27.3050 	 1.3071 	 32.2024 	 2.0905 	 47.6062 	 22.6912 	 15.4038 	 3.3000
  0.9000 	 1.0000 	 2.5882 	 31.7101 	 2.1942 	 12.1540 	 2.5851 	 31.7519 	 54.8595 	 19.5979 	 3.4000
  0.9000 	 1.1000 	 2.7529 	 30.7226 	 2.0138 	 14.6834 	 2.4725 	 34.6683 	 49.8841 	 19.9849 	 3.4000
  0.9000 	 1.2000 	 2.8901 	 29.9667 	 1.8613 	 17.2337 	 2.3832 	 37.2822 	 45.1517 	 20.0485 	 3.4000
  0.9000 	 1.3000 	 3.0063 	 29.3688 	 1.7302 	 19.8458 	 2.3114 	 39.6334 	 40.6039 	 19.7876 	 3.4000
  0.9000 	 1.4000 	 3.1058 	 28.8839 	 1.6161 	 22.5639 	 2.2527 	 41.7555 	 36.1771 	 19.1916 	 3.4000
  0.9000 	 1.5000 	 3.1921 	 28.4825 	 1.5155 	 25.4420 	 2.2043 	 43.6770 	 31.7971 	 18.2350 	 3.4000
  0.9000 	 1.6000 	 3.2676 	 28.1447 	 1.4259 	 28.5560 	 2.1639 	 45.4224 	 27.3673 	 16.8664 	 3.4000
  0.9000 	 1.7000 	 3.3342 	 27.8564 	 1.3455 	 32.0274 	 2.1298 	 47.0127 	 22.7406 	 14.9853 	 3.4000
  0.9000 	 1.0000 	 2.5349 	 32.5313 	 2.2520 	 11.9191 	 2.6417 	 31.0649 	 55.1522 	 19.1458 	 3.5000
  0.9000 	 1.1000 	 2.7044 	 31.4677 	 2.0671 	 14.4677 	 2.5249 	 33.9964 	 50.1549 	 19.5287 	 3.5000
  0.9000 	 1.2000 	 2.8457 	 30.6568 	 1.9109 	 17.0326 	 2.4322 	 36.6252 	 45.3960 	 19.5926 	 3.5000
  0.9000 	 1.3000 	 2.9653 	 30.0176 	 1.7767 	 19.6555 	 2.3576 	 38.9914 	 40.8173 	 19.3359 	 3.5000
  0.9000 	 1.4000 	 3.0678 	 29.5003 	 1.6600 	 22.3808 	 2.2967 	 41.1284 	 36.3552 	 18.7476 	 3.5000
  0.9000 	 1.5000 	 3.1566 	 29.0731 	 1.5571 	 25.2626 	 2.2464 	 43.0646 	 31.9348 	 17.8021 	 3.5000
  0.9000 	 1.6000 	 3.2343 	 28.7141 	 1.4656 	 28.3767 	 2.2043 	 44.8244 	 27.4576 	 16.4477 	 3.5000
  0.9000 	 1.7000 	 3.3029 	 28.4081 	 1.3835 	 31.8453 	 2.1688 	 46.4287 	 22.7719 	 14.5834 	 3.5000
  0.9000 	 1.0000 	 2.4816 	 33.3686 	 2.3097 	 11.6735 	 2.6982 	 30.3887 	 55.4296 	 18.7152 	 3.6000
  0.9000 	 1.1000 	 2.6560 	 32.2236 	 2.1202 	 14.2413 	 2.5771 	 33.3354 	 50.4108 	 19.0941 	 3.6000
  0.9000 	 1.2000 	 2.8013 	 31.3544 	 1.9602 	 16.8208 	 2.4811 	 35.9790 	 45.6257 	 19.1582 	 3.6000
  0.9000 	 1.3000 	 2.9243 	 30.6715 	 1.8230 	 19.4546 	 2.4037 	 38.3599 	 41.0164 	 18.9053 	 3.6000
  0.9000 	 1.4000 	 3.0297 	 30.1204 	 1.7035 	 22.1873 	 2.3405 	 40.5114 	 36.5191 	 18.3242 	 3.6000
  0.9000 	 1.5000 	 3.1211 	 29.6660 	 1.5985 	 25.0734 	 2.2882 	 42.4620 	 32.0582 	 17.3887 	 3.6000
  0.9000 	 1.6000 	 3.2010 	 29.2849 	 1.5050 	 28.1888 	 2.2445 	 44.2358 	 27.5329 	 16.0470 	 3.6000
  0.9000 	 1.7000 	 3.2715 	 28.9605 	 1.4212 	 31.6566 	 2.2076 	 45.8537 	 22.7868 	 14.1971 	 3.6000
  0.9000 	 1.0000 	 2.4283 	 34.2233 	 2.3671 	 11.4180 	 2.7546 	 29.7226 	 55.6929 	 18.3046 	 3.7000
  0.9000 	 1.1000 	 2.6075 	 32.9912 	 2.1731 	 14.0051 	 2.6292 	 32.6846 	 50.6530 	 18.6795 	 3.7000
  0.9000 	 1.2000 	 2.7569 	 32.0602 	 2.0094 	 16.5992 	 2.5298 	 35.3430 	 45.8421 	 18.7437 	 3.7000
  0.9000 	 1.3000 	 2.8833 	 31.3312 	 1.8689 	 19.2439 	 2.4496 	 37.7383 	 41.2024 	 18.4944 	 3.7000
  0.9000 	 1.4000 	 2.9916 	 30.7444 	 1.7469 	 21.9843 	 2.3840 	 39.9041 	 36.6701 	 17.9198 	 3.7000
  0.9000 	 1.5000 	 3.0855 	 30.2616 	 1.6395 	 24.8752 	 2.3298 	 41.8686 	 32.1685 	 16.9935 	 3.7000
  0.9000 	 1.6000 	 3.1677 	 29.8574 	 1.5441 	 27.9929 	 2.2844 	 43.6562 	 27.5947 	 15.6632 	 3.7000
  0.9000 	 1.7000 	 3.2402 	 29.5138 	 1.4587 	 31.4615 	 2.2462 	 45.2874 	 22.7872 	 13.8258 	 3.7000
  0.9000 	 1.0000 	 2.3750 	 35.0968 	 2.4243 	 11.1532 	 2.8108 	 29.0658 	 55.9433 	 17.9126 	 3.8000
  0.9000 	 1.1000 	 2.5591 	 33.7715 	 2.2258 	 13.7598 	 2.6812 	 32.0434 	 50.8827 	 18.2836 	 3.8000
  0.9000 	 1.2000 	 2.7125 	 32.7748 	 2.0583 	 16.3686 	 2.5783 	 34.7164 	 46.0463 	 18.3478 	 3.8000
  0.9000 	 1.3000 	 2.8423 	 31.9971 	 1.9147 	 19.0243 	 2.4953 	 37.1260 	 41.3766 	 18.1017 	 3.8000
  0.9000 	 1.4000 	 2.9536 	 31.3728 	 1.7900 	 21.7726 	 2.4274 	 39.3058 	 36.8094 	 17.5331 	 3.8000
  0.9000 	 1.5000 	 3.0500 	 30.8603 	 1.6803 	 24.6688 	 2.3712 	 41.2841 	 32.2671 	 16.6153 	 3.8000
  0.9000 	 1.6000 	 3.1344 	 30.4319 	 1.5830 	 27.7896 	 2.3242 	 43.0850 	 27.6445 	 15.2954 	 3.8000
  0.9000 	 1.7000 	 3.2088 	 30.0684 	 1.4958 	 31.2606 	 2.2845 	 44.7293 	 22.7743 	 13.4687 	 3.8000
  0.9000 	 1.0000 	 2.3217 	 35.9905 	 2.4814 	 10.8797 	 2.8669 	 28.4176 	 56.1816 	 17.5379 	 3.9000
  0.9000 	 1.1000 	 2.5106 	 34.5654 	 2.2783 	 13.5061 	 2.7331 	 31.4111 	 51.1007 	 17.9050 	 3.9000
  0.9000 	 1.2000 	 2.6681 	 33.4990 	 2.1070 	 16.1297 	 2.6267 	 34.0988 	 46.2392 	 17.9691 	 3.9000
  0.9000 	 1.3000 	 2.8013 	 32.6698 	 1.9602 	 18.7965 	 2.5408 	 36.5225 	 41.5398 	 17.7260 	 3.9000
  0.9000 	 1.4000 	 2.9155 	 32.0061 	 1.8328 	 21.5530 	 2.4706 	 38.7161 	 36.9380 	 17.1631 	 3.9000
  0.9000 	 1.5000 	 3.0145 	 31.4625 	 1.7209 	 24.4548 	 2.4124 	 40.7079 	 32.3550 	 16.2531 	 3.9000
  0.9000 	 1.6000 	 3.1011 	 31.0089 	 1.6216 	 27.5795 	 2.3637 	 42.5220 	 27.6833 	 14.9425 	 3.9000
  0.9000 	 1.7000 	 3.1775 	 30.6245 	 1.5327 	 31.0540 	 2.3226 	 44.1790 	 22.7495 	 13.1250 	 3.9000
  0.9000 	 1.0000 	 2.2684 	 36.9061 	 2.5383 	 10.5980 	 2.9229 	 27.7773 	 56.4088 	 17.1793 	 4.0000
  0.9000 	 1.1000 	 2.4622 	 35.3740 	 2.3306 	 13.2445 	 2.7848 	 30.7871 	 51.3080 	 17.5426 	 4.0000
  0.9000 	 1.2000 	 2.6237 	 34.2334 	 2.1555 	 15.8832 	 2.6749 	 33.4896 	 46.4217 	 17.6065 	 4.0000
  0.9000 	 1.3000 	 2.7603 	 33.3499 	 2.0056 	 18.5612 	 2.5862 	 35.9274 	 41.6929 	 17.3662 	 4.0000
  0.9000 	 1.4000 	 2.8774 	 32.6447 	 1.8755 	 21.3260 	 2.5136 	 38.1346 	 37.0567 	 16.8086 	 4.0000
  0.9000 	 1.5000 	 2.9789 	 32.0685 	 1.7613 	 24.2339 	 2.4534 	 40.1397 	 32.4333 	 15.9058 	 4.0000
  0.9000 	 1.6000 	 3.0678 	 31.5885 	 1.6600 	 27.3630 	 2.4031 	 41.9666 	 27.7121 	 14.6037 	 4.0000
  0.9000 	 1.7000 	 3.1461 	 31.1825 	 1.5693 	 30.8422 	 2.3605 	 43.6362 	 22.7139 	 12.7940 	 4.0000
  0.9000 	 1.8000 	 3.2158 	 30.8344 	 1.4876 	 34.9382 	 2.3243 	 45.1661 	 17.0667 	 10.2278 	 4.0000
  0.9000 	 1.0000 	 2.2151 	 37.8453 	 2.5950 	 10.3085 	 2.9789 	 27.1442 	 56.6256 	 16.8357 	 4.1000
  0.9000 	 1.1000 	 2.4138 	 36.1983 	 2.3827 	 12.9756 	 2.8364 	 30.1709 	 51.5053 	 17.1953 	 4.1000
  0.9000 	 1.2000 	 2.5793 	 34.9788 	 2.2038 	 15.6294 	 2.7231 	 32.8884 	 46.5947 	 17.2589 	 4.1000
  0.9000 	 1.3000 	 2.7193 	 34.0379 	 2.0508 	 18.3189 	 2.6315 	 35.3402 	 41.8369 	 17.0212 	 4.1000
  0.9000 	 1.4000 	 2.8394 	 33.2891 	 1.9180 	 21.0923 	 2.5565 	 37.5609 	 37.1665 	 16.4686 	 4.1000
  0.9000 	 1.5000 	 2.9434 	 32.6787 	 1.8014 	 24.0065 	 2.4943 	 39.5790 	 32.5026 	 15.5725 	 4.1000
  0.9000 	 1.6000 	 3.0345 	 32.1712 	 1.6981 	 27.1405 	 2.4423 	 41.4187 	 27.7320 	 14.2781 	 4.1000
  0.9000 	 1.7000 	 3.1148 	 31.7426 	 1.6057 	 30.6254 	 2.3983 	 43.1005 	 22.6686 	 12.4751 	 4.1000
  0.9000 	 1.8000 	 3.1862 	 31.3757 	 1.5225 	 34.7354 	 2.3608 	 44.6422 	 16.9200 	 9.9068 	 4.1000
  0.9000 	 1.0000 	 2.1618 	 38.8100 	 2.6516 	 10.0115 	 3.0347 	 26.5177 	 56.8327 	 16.5062 	 4.2000
  0.9000 	 1.1000 	 2.3653 	 37.0395 	 2.4347 	 12.6997 	 2.8879 	 29.5619 	 51.6932 	 16.8622 	 4.2000
  0.9000 	 1.2000 	 2.5349 	 35.7360 	 2.2520 	 15.3691 	 2.7710 	 32.2945 	 46.7587 	 16.9255 	 4.2000
  0.9000 	 1.3000 	 2.6783 	 34.7343 	 2.0958 	 18.0702 	 2.6766 	 34.7604 	 41.9723 	 16.6902 	 4.2000
  0.9000 	 1.4000 	 2.8013 	 33.9397 	 1.9602 	 20.8523 	 2.5992 	 36.9945 	 37.2681 	 16.1422 	 4.2000
  0.9000 	 1.5000 	 2.9079 	 33.2935 	 1.8414 	 23.7730 	 2.5350 	 39.0255 	 32.5640 	 15.2525 	 4.2000
  0.9000 	 1.6000 	 3.0012 	 32.7573 	 1.7361 	 26.9126 	 2.4813 	 40.8777 	 27.7437 	 13.9651 	 4.2000
  0.9000 	 1.7000 	 3.0834 	 32.3051 	 1.6419 	 30.4040 	 2.4358 	 42.5716 	 22.6143 	 12.1676 	 4.2000
  0.9000 	 1.8000 	 3.1566 	 31.9185 	 1.5571 	 34.5298 	 2.3971 	 44.1250 	 16.7616 	 9.5952 	 4.2000
  0.9000 	 1.0000 	 2.1086 	 39.8021 	 2.7081 	 9.7072 	 3.0904 	 25.8972 	 57.0308 	 16.1900 	 4.3000
  0.9000 	 1.1000 	 2.3169 	 37.8989 	 2.4865 	 12.4172 	 2.9393 	 28.9595 	 51.8726 	 16.5423 	 4.3000
  0.9000 	 1.2000 	 2.4905 	 36.5058 	 2.3001 	 15.1024 	 2.8189 	 31.7076 	 46.9146 	 16.6052 	 4.3000
  0.9000 	 1.3000 	 2.6373 	 35.4399 	 2.1406 	 17.8154 	 2.7216 	 34.1876 	 42.0998 	 16.3722 	 4.3000
  0.9000 	 1.4000 	 2.7633 	 34.5970 	 2.0024 	 20.6064 	 2.6418 	 36.4351 	 37.3622 	 15.8286 	 4.3000
  0.9000 	 1.5000 	 2.8724 	 33.9132 	 1.8812 	 23.5341 	 2.5756 	 38.4789 	 32.6179 	 14.9448 	 4.3000
  0.9000 	 1.6000 	 2.9678 	 33.3470 	 1.7738 	 26.6795 	 2.5201 	 40.3434 	 27.7480 	 13.6639 	 4.3000
  0.9000 	 1.7000 	 3.0521 	 32.8703 	 1.6779 	 30.1781 	 2.4732 	 42.0492 	 22.5519 	 11.8711 	 4.3000
  0.9000 	 1.8000 	 3.1270 	 32.4633 	 1.5916 	 34.3216 	 2.4332 	 43.6141 	 16.5921 	 9.2925 	 4.3000
  0.9000 	 1.0000 	 2.0553 	 40.8239 	 2.7644 	 9.3958 	 3.1461 	 25.2819 	 57.2205 	 15.8861 	 4.4000
  0.9000 	 1.1000 	 2.2684 	 38.7776 	 2.5383 	 12.1284 	 2.9906 	 28.3633 	 52.0439 	 16.2349 	 4.4000
  0.9000 	 1.2000 	 2.4461 	 37.2891 	 2.3480 	 14.8299 	 2.8667 	 31.1273 	 47.0627 	 16.2974 	 4.4000
  0.9000 	 1.3000 	 2.5964 	 36.1551 	 2.1853 	 17.5549 	 2.7664 	 33.6215 	 42.2201 	 16.0666 	 4.4000
  0.9000 	 1.4000 	 2.7252 	 35.2614 	 2.0443 	 20.3551 	 2.6842 	 35.8822 	 37.4492 	 15.5271 	 4.4000
  0.9000 	 1.5000 	 2.8368 	 34.5383 	 1.9208 	 23.2899 	 2.6160 	 37.9388 	 32.6651 	 14.6489 	 4.4000
  0.9000 	 1.6000 	 2.9345 	 33.9407 	 1.8114 	 26.4416 	 2.5588 	 39.8154 	 27.7454 	 13.3739 	 4.4000
  0.9000 	 1.7000 	 3.0207 	 33.4385 	 1.7138 	 29.9482 	 2.5104 	 41.5330 	 22.4821 	 11.5848 	 4.4000
  0.9000 	 1.8000 	 3.0974 	 33.0103 	 1.6259 	 34.1109 	 2.4692 	 43.1092 	 16.4124 	 8.9983 	 4.4000
  0.9000 	 1.0000 	 2.0020 	 41.8778 	 2.8206 	 9.0774 	 3.2016 	 24.6713 	 57.4023 	 15.5939 	 4.5000
  0.9000 	 1.1000 	 2.2200 	 39.6772 	 2.5898 	 11.8336 	 3.0418 	 27.7727 	 52.2077 	 15.9392 	 4.5000
  0.9000 	 1.2000 	 2.4016 	 38.0867 	 2.3957 	 14.5518 	 2.9143 	 30.5530 	 47.2038 	 16.0012 	 4.5000
  0.9000 	 1.3000 	 2.5554 	 36.8808 	 2.2298 	 17.2892 	 2.8112 	 33.0616 	 42.3336 	 15.7724 	 4.5000
  0.9000 	 1.4000 	 2.6871 	 35.9335 	 2.0861 	 20.0987 	 2.7265 	 35.3357 	 37.5299 	 15.2369 	 4.5000
  0.9000 	 1.5000 	 2.8013 	 35.1691 	 1.9602 	 23.0409 	 2.6563 	 37.4048 	 32.7061 	 14.3639 	 4.5000
  0.9000 	 1.6000 	 2.9012 	 34.5388 	 1.8489 	 26.1992 	 2.5974 	 39.2936 	 27.7367 	 13.0944 	 4.5000
  0.9000 	 1.7000 	 2.9894 	 34.0099 	 1.7494 	 29.7143 	 2.5475 	 41.0227 	 22.4055 	 11.3084 	 4.5000
  0.9000 	 1.8000 	 3.0678 	 33.5597 	 1.6600 	 33.8978 	 2.5050 	 42.6101 	 16.2228 	 8.7122 	 4.5000
  1.0000 	 1.0000 	 2.8546 	 27.8030 	 1.8214 	 10.6007 	 2.2996 	 35.3803 	 49.7649 	 24.7796 	 2.9000
  1.0000 	 1.1000 	 2.9951 	 27.1303 	 1.6618 	 12.9511 	 2.2077 	 38.2191 	 45.1808 	 25.2679 	 2.9000
  1.0000 	 1.2000 	 3.1122 	 26.6056 	 1.5259 	 15.3721 	 2.1351 	 40.7531 	 40.8482 	 25.3810 	 2.9000
  1.0000 	 1.3000 	 3.2112 	 26.1846 	 1.4083 	 17.9071 	 2.0768 	 43.0233 	 36.7095 	 25.1162 	 2.9000
  1.0000 	 1.4000 	 3.2961 	 25.8392 	 1.3050 	 20.6069 	 2.0294 	 45.0642 	 32.7043 	 24.4573 	 2.9000
  1.0000 	 1.5000 	 3.3697 	 25.5506 	 1.2132 	 23.5375 	 1.9903 	 46.9054 	 28.7648 	 23.3679 	 2.9000
  1.0000 	 1.6000 	 3.4341 	 25.3060 	 1.1308 	 26.7934 	 1.9578 	 48.5722 	 24.8053 	 21.7788 	 2.9000
  1.0000 	 1.7000 	 3.4909 	 25.0958 	 1.0559 	 30.5270 	 1.9304 	 50.0862 	 20.7006 	 19.5592 	 2.9000
  1.0000 	 1.0000 	 2.8013 	 28.5616 	 1.8811 	 10.5177 	 2.3571 	 34.6256 	 50.2073 	 24.1080 	 3.0000
  1.0000 	 1.1000 	 2.9467 	 27.8337 	 1.7172 	 12.8902 	 2.2610 	 37.4805 	 45.6081 	 24.5903 	 3.0000
  1.0000 	 1.2000 	 3.0678 	 27.2679 	 1.5778 	 15.3264 	 2.1851 	 40.0315 	 41.2570 	 24.7051 	 3.0000
  1.0000 	 1.3000 	 3.1702 	 26.8152 	 1.4573 	 17.8689 	 2.1242 	 42.3189 	 37.0976 	 24.4501 	 3.0000
  1.0000 	 1.4000 	 3.2581 	 26.4446 	 1.3516 	 20.5670 	 2.0746 	 44.3771 	 33.0703 	 23.8101 	 3.0000
  1.0000 	 1.5000 	 3.3342 	 26.1356 	 1.2579 	 23.4841 	 2.0337 	 46.2354 	 29.1079 	 22.7514 	 3.0000
  1.0000 	 1.6000 	 3.4008 	 25.8739 	 1.1737 	 26.7104 	 1.9996 	 47.9190 	 25.1257 	 21.2086 	 3.0000
  1.0000 	 1.7000 	 3.4596 	 25.6494 	 1.0975 	 30.3903 	 1.9709 	 49.4492 	 20.9996 	 19.0589 	 3.0000
  1.0000 	 1.8000 	 3.5118 	 25.4546 	 1.0277 	 34.7968 	 1.9465 	 50.8445 	 16.5055 	 16.0477 	 3.0000
  1.0000 	 1.0000 	 2.7480 	 29.3305 	 1.9405 	 10.4120 	 2.4143 	 33.8865 	 50.6224 	 23.4744 	 3.1000
  1.0000 	 1.1000 	 2.8982 	 28.5439 	 1.7722 	 12.8062 	 2.3142 	 36.7571 	 46.0077 	 23.9509 	 3.1000
  1.0000 	 1.2000 	 3.0234 	 27.9346 	 1.6293 	 15.2574 	 2.2350 	 39.3244 	 41.6376 	 24.0670 	 3.1000
  1.0000 	 1.3000 	 3.1293 	 27.4485 	 1.5058 	 17.8080 	 2.1714 	 41.6285 	 37.4565 	 23.8205 	 3.1000
  1.0000 	 1.4000 	 3.2200 	 27.0514 	 1.3977 	 20.5060 	 2.1195 	 43.7034 	 33.4058 	 23.1974 	 3.1000
  1.0000 	 1.5000 	 3.2987 	 26.7208 	 1.3019 	 23.4129 	 2.0768 	 45.5783 	 29.4187 	 22.1654 	 3.1000
  1.0000 	 1.6000 	 3.3675 	 26.4413 	 1.2161 	 26.6152 	 2.0411 	 47.2780 	 25.4109 	 20.6628 	 3.1000
  1.0000 	 1.7000 	 3.4283 	 26.2018 	 1.1384 	 30.2512 	 2.0110 	 48.8239 	 21.2589 	 18.5728 	 3.1000
  1.0000 	 1.8000 	 3.4822 	 25.9944 	 1.0675 	 34.5807 	 1.9855 	 50.2344 	 16.7402 	 15.6537 	 3.1000
  1.0000 	 1.0000 	 2.6947 	 30.1108 	 1.9995 	 10.2861 	 2.4714 	 33.1618 	 51.0125 	 22.8757 	 3.2000
  1.0000 	 1.1000 	 2.8498 	 29.2615 	 1.8268 	 12.7015 	 2.3671 	 36.0478 	 46.3821 	 23.3464 	 3.2000
  1.0000 	 1.2000 	 2.9789 	 28.6062 	 1.6803 	 15.1676 	 2.2846 	 38.6310 	 41.9926 	 23.4634 	 3.2000
  1.0000 	 1.3000 	 3.0883 	 28.0848 	 1.5539 	 17.7267 	 2.2183 	 40.9513 	 37.7893 	 23.2245 	 3.2000
  1.0000 	 1.4000 	 3.1820 	 27.6598 	 1.4433 	 20.4261 	 2.1642 	 43.0424 	 33.7142 	 22.6163 	 3.2000
  1.0000 	 1.5000 	 3.2632 	 27.3068 	 1.3455 	 23.3253 	 2.1195 	 44.9333 	 29.7008 	 21.6080 	 3.2000
  1.0000 	 1.6000 	 3.3342 	 27.0087 	 1.2579 	 26.5082 	 2.0823 	 46.6487 	 25.6651 	 20.1405 	 3.2000
  1.0000 	 1.7000 	 3.3969 	 26.7536 	 1.1787 	 30.1081 	 2.0509 	 48.2098 	 21.4835 	 18.1017 	 3.2000
  1.0000 	 1.8000 	 3.4526 	 26.5328 	 1.1066 	 34.3749 	 2.0242 	 49.6349 	 16.9332 	 15.2600 	 3.2000
  1.0000 	 1.0000 	 2.6414 	 30.9036 	 2.0582 	 10.1418 	 2.5283 	 32.4506 	 51.3801 	 22.3087 	 3.3000
  1.0000 	 1.1000 	 2.8013 	 29.9875 	 1.8811 	 12.5780 	 2.4199 	 35.3519 	 46.7338 	 22.7738 	 3.3000
  1.0000 	 1.2000 	 2.9345 	 29.2833 	 1.7310 	 15.0591 	 2.3340 	 37.9505 	 42.3246 	 22.8914 	 3.3000
  1.0000 	 1.3000 	 3.0473 	 28.7247 	 1.6016 	 17.6272 	 2.2649 	 40.2865 	 38.0986 	 22.6593 	 3.3000
  1.0000 	 1.4000 	 3.1439 	 28.2705 	 1.4885 	 20.3289 	 2.2086 	 42.3933 	 33.9983 	 22.0644 	 3.3000
  1.0000 	 1.5000 	 3.2276 	 27.8939 	 1.3885 	 23.2226 	 2.1620 	 44.2997 	 29.9575 	 21.0772 	 3.3000
  1.0000 	 1.6000 	 3.3009 	 27.5763 	 1.2992 	 26.3899 	 2.1232 	 46.0303 	 25.8918 	 19.6405 	 3.3000
  1.0000 	 1.7000 	 3.3656 	 27.3050 	 1.2185 	 29.9602 	 2.0905 	 47.6062 	 21.6774 	 17.6461 	 3.3000
  1.0000 	 1.8000 	 3.4230 	 27.0704 	 1.1451 	 34.1759 	 2.0626 	 49.0456 	 17.0897 	 14.8697 	 3.3000
  1.0000 	 1.0000 	 2.5882 	 31.7101 	 2.1167 	 9.9809 	 2.5851 	 31.7519 	 51.7271 	 21.7710 	 3.4000
  1.0000 	 1.1000 	 2.7529 	 30.7226 	 1.9351 	 12.4377 	 2.4725 	 34.6683 	 47.0648 	 22.2306 	 3.4000
  1.0000 	 1.2000 	 2.8901 	 29.9667 	 1.7813 	 14.9337 	 2.3832 	 37.2822 	 42.6357 	 22.3485 	 3.4000
  1.0000 	 1.3000 	 3.0063 	 29.3688 	 1.6489 	 17.5110 	 2.3114 	 39.6334 	 38.3867 	 22.1224 	 3.4000
  1.0000 	 1.4000 	 3.1058 	 28.8839 	 1.5333 	 20.2160 	 2.2527 	 41.7555 	 34.2606 	 21.5396 	 3.4000
  1.0000 	 1.5000 	 3.1921 	 28.4825 	 1.4312 	 23.1059 	 2.2043 	 43.6770 	 30.1913 	 20.5711 	 3.4000
  1.0000 	 1.6000 	 3.2676 	 28.1447 	 1.3400 	 26.2608 	 2.1639 	 45.4224 	 26.0942 	 19.1617 	 3.4000
  1.0000 	 1.7000 	 3.3342 	 27.8564 	 1.2579 	 29.8068 	 2.1298 	 47.0127 	 21.8441 	 17.2059 	 3.4000
  1.0000 	 1.8000 	 3.3934 	 27.6074 	 1.1832 	 33.9808 	 2.1008 	 48.4659 	 17.2141 	 14.4851 	 3.4000
  1.0000 	 1.0000 	 2.5349 	 32.5313 	 2.1748 	 9.8047 	 2.6417 	 31.0649 	 52.0551 	 21.2602 	 3.5000
  1.0000 	 1.1000 	 2.7044 	 31.4677 	 1.9888 	 12.2821 	 2.5249 	 33.9964 	 47.3769 	 21.7143 	 3.5000
  1.0000 	 1.2000 	 2.8457 	 30.6568 	 1.8314 	 14.7928 	 2.4322 	 36.6252 	 42.9279 	 21.8324 	 3.5000
  1.0000 	 1.3000 	 2.9653 	 30.0176 	 1.6959 	 17.3797 	 2.3576 	 38.9914 	 38.6556 	 21.6117 	 3.5000
  1.0000 	 1.4000 	 3.0678 	 29.5003 	 1.5778 	 20.0887 	 2.2967 	 41.1284 	 34.5032 	 21.0397 	 3.5000
  1.0000 	 1.5000 	 3.1566 	 29.0731 	 1.4735 	 22.9765 	 2.2464 	 43.0646 	 30.4046 	 20.0882 	 3.5000
  1.0000 	 1.6000 	 3.2343 	 28.7141 	 1.3805 	 26.1214 	 2.2043 	 44.8244 	 26.2747 	 18.7030 	 3.5000
  1.0000 	 1.7000 	 3.3029 	 28.4081 	 1.2968 	 29.6476 	 2.1688 	 46.4287 	 21.9868 	 16.7811 	 3.5000
  1.0000 	 1.8000 	 3.3638 	 28.1442 	 1.2207 	 33.7878 	 2.1386 	 47.8954 	 17.3102 	 14.1076 	 3.5000
  1.0000 	 1.0000 	 2.4816 	 33.3686 	 2.2328 	 9.6146 	 2.6982 	 30.3887 	 52.3658 	 20.7742 	 3.6000
  1.0000 	 1.1000 	 2.6560 	 32.2236 	 2.0423 	 12.1124 	 2.5771 	 33.3354 	 47.6717 	 21.2231 	 3.6000
  1.0000 	 1.2000 	 2.8013 	 31.3544 	 1.8811 	 14.6380 	 2.4811 	 35.9790 	 43.2027 	 21.3411 	 3.6000
  1.0000 	 1.3000 	 2.9243 	 30.6715 	 1.7426 	 17.2347 	 2.4037 	 38.3599 	 38.9070 	 21.1252 	 3.6000
  1.0000 	 1.4000 	 3.0297 	 30.1204 	 1.6219 	 19.9484 	 2.3405 	 40.5114 	 34.7281 	 20.5630 	 3.6000
  1.0000 	 1.5000 	 3.1211 	 29.6660 	 1.5155 	 22.8352 	 2.2882 	 42.4620 	 30.5995 	 19.6268 	 3.6000
  1.0000 	 1.6000 	 3.2010 	 29.2849 	 1.4206 	 25.9725 	 2.2445 	 44.2358 	 26.4356 	 18.2633 	 3.6000
  1.0000 	 1.7000 	 3.2715 	 28.9605 	 1.3353 	 29.4826 	 2.2076 	 45.8537 	 22.1079 	 16.3712 	 3.6000
  1.0000 	 1.8000 	 3.3342 	 28.6810 	 1.2579 	 33.5956 	 2.1762 	 47.3337 	 17.3808 	 13.7381 	 3.6000
  1.0000 	 1.0000 	 2.4283 	 34.2233 	 2.2904 	 9.4115 	 2.7546 	 29.7226 	 52.6605 	 20.3111 	 3.7000
  1.0000 	 1.1000 	 2.6075 	 32.9912 	 2.0955 	 11.9298 	 2.6292 	 32.6846 	 47.9506 	 20.7548 	 3.7000
  1.0000 	 1.2000 	 2.7569 	 32.0602 	 1.9306 	 14.4703 	 2.5298 	 35.3430 	 43.4617 	 20.8726 	 3.7000
  1.0000 	 1.3000 	 2.8833 	 31.3312 	 1.7891 	 17.0771 	 2.4496 	 37.7383 	 39.1426 	 20.6612 	 3.7000
  1.0000 	 1.4000 	 2.9916 	 30.7444 	 1.6658 	 19.7961 	 2.3840 	 39.9041 	 34.9367 	 20.1080 	 3.7000
  1.0000 	 1.5000 	 3.0855 	 30.2616 	 1.5571 	 22.6830 	 2.3298 	 41.8686 	 30.7778 	 19.1857 	 3.7000
  1.0000 	 1.6000 	 3.1677 	 29.8574 	 1.4603 	 25.8145 	 2.2844 	 43.6562 	 26.5789 	 17.8417 	 3.7000
  1.0000 	 1.7000 	 3.2402 	 29.5138 	 1.3734 	 29.3116 	 2.2462 	 45.2874 	 22.2098 	 15.9758 	 3.7000
  1.0000 	 1.8000 	 3.3046 	 29.2182 	 1.2946 	 33.4030 	 2.2136 	 46.7802 	 17.4289 	 13.3772 	 3.7000
  1.0000 	 1.0000 	 2.3750 	 35.0968 	 2.3479 	 9.1964 	 2.8108 	 29.0658 	 52.9404 	 19.8694 	 3.8000
  1.0000 	 1.1000 	 2.5591 	 33.7715 	 2.1484 	 11.7354 	 2.6812 	 32.0434 	 48.2149 	 20.3080 	 3.8000
  1.0000 	 1.2000 	 2.7125 	 32.7748 	 1.9799 	 14.2909 	 2.5783 	 34.7164 	 43.7062 	 20.4255 	 3.8000
  1.0000 	 1.3000 	 2.8423 	 31.9971 	 1.8352 	 16.9080 	 2.4953 	 37.1260 	 39.3635 	 20.2180 	 3.8000
  1.0000 	 1.4000 	 2.9536 	 31.3728 	 1.7093 	 19.6327 	 2.4274 	 39.3058 	 35.1307 	 19.6731 	 3.8000
  1.0000 	 1.5000 	 3.0500 	 30.8603 	 1.5984 	 22.5207 	 2.3712 	 41.2841 	 30.9409 	 18.7634 	 3.8000
  1.0000 	 1.6000 	 3.1344 	 30.4319 	 1.4998 	 25.6480 	 2.3242 	 43.0850 	 26.7064 	 17.4370 	 3.8000
  1.0000 	 1.7000 	 3.2088 	 30.0684 	 1.4112 	 29.1349 	 2.2845 	 44.7293 	 22.2943 	 15.5944 	 3.8000
  1.0000 	 1.8000 	 3.2750 	 29.7560 	 1.3310 	 33.2094 	 2.2507 	 46.2347 	 17.4565 	 13.0253 	 3.8000
  1.0000 	 1.0000 	 2.3217 	 35.9905 	 2.4052 	 8.9702 	 2.8669 	 28.4176 	 53.2067 	 19.4475 	 3.9000
  1.0000 	 1.1000 	 2.5106 	 34.5654 	 2.2012 	 11.5300 	 2.7331 	 31.4111 	 48.4657 	 19.8811 	 3.9000
  1.0000 	 1.2000 	 2.6681 	 33.4990 	 2.0289 	 14.1007 	 2.6267 	 34.0988 	 43.9373 	 19.9981 	 3.9000
  1.0000 	 1.3000 	 2.8013 	 32.6698 	 1.8811 	 16.7282 	 2.5408 	 36.5225 	 39.5712 	 19.7943 	 3.9000
  1.0000 	 1.4000 	 2.9155 	 32.0061 	 1.7526 	 19.4592 	 2.4706 	 38.7161 	 35.3112 	 19.2569 	 3.9000
  1.0000 	 1.5000 	 3.0145 	 31.4625 	 1.6395 	 22.3490 	 2.4124 	 40.7079 	 31.0903 	 18.3589 	 3.9000
  1.0000 	 1.6000 	 3.1011 	 31.0089 	 1.5389 	 25.4735 	 2.3637 	 42.5220 	 26.8195 	 17.0484 	 3.9000
  1.0000 	 1.7000 	 3.1775 	 30.6245 	 1.4487 	 28.9525 	 2.3226 	 44.1790 	 22.3631 	 15.2265 	 3.9000
  1.0000 	 1.8000 	 3.2454 	 30.2946 	 1.3671 	 33.0142 	 2.2876 	 45.6968 	 17.4658 	 12.6826 	 3.9000
  1.0000 	 1.0000 	 2.2684 	 36.9061 	 2.4623 	 8.7333 	 2.9229 	 27.7773 	 53.4604 	 19.0440 	 4.0000
  1.0000 	 1.1000 	 2.4622 	 35.3740 	 2.2538 	 11.3144 	 2.7848 	 30.7871 	 48.7040 	 19.4728 	 4.0000
  1.0000 	 1.2000 	 2.6237 	 34.2334 	 2.0778 	 13.9005 	 2.6749 	 33.4896 	 44.1560 	 19.5892 	 4.0000
  1.0000 	 1.3000 	 2.7603 	 33.3499 	 1.9268 	 16.5387 	 2.5862 	 35.9274 	 39.7666 	 19.3887 	 4.0000
  1.0000 	 1.4000 	 2.8774 	 32.6447 	 1.7957 	 19.2763 	 2.5136 	 38.1346 	 35.4795 	 18.8583 	 4.0000
  1.0000 	 1.5000 	 2.9789 	 32.0685 	 1.6803 	 22.1687 	 2.4534 	 40.1397 	 31.2272 	 17.9710 	 4.0000
  1.0000 	 1.6000 	 3.0678 	 31.5885 	 1.5778 	 25.2916 	 2.4031 	 41.9666 	 26.9195 	 16.6750 	 4.0000
  1.0000 	 1.7000 	 3.1461 	 31.1825 	 1.4859 	 28.7647 	 2.3605 	 43.6362 	 22.4178 	 14.8715 	 4.0000
  1.0000 	 1.8000 	 3.2158 	 30.8344 	 1.4028 	 32.8171 	 2.3243 	 45.1661 	 17.4584 	 12.3490 	 4.0000
  1.0000 	 1.0000 	 2.2151 	 37.8453 	 2.5193 	 8.4865 	 2.9789 	 27.1442 	 53.7024 	 18.6577 	 4.1000
  1.0000 	 1.1000 	 2.4138 	 36.1983 	 2.3061 	 11.0892 	 2.8364 	 30.1709 	 48.9308 	 19.0817 	 4.1000
  1.0000 	 1.2000 	 2.5793 	 34.9788 	 2.1264 	 13.6909 	 2.7231 	 32.8884 	 44.3634 	 19.1975 	 4.1000
  1.0000 	 1.3000 	 2.7193 	 34.0379 	 1.9723 	 16.3401 	 2.6315 	 35.3402 	 39.9507 	 19.0000 	 4.1000
  1.0000 	 1.4000 	 2.8394 	 33.2891 	 1.8385 	 19.0847 	 2.5565 	 37.5609 	 35.6365 	 18.4762 	 4.1000
  1.0000 	 1.5000 	 2.9434 	 32.6787 	 1.7209 	 21.9803 	 2.4943 	 39.5790 	 31.3527 	 17.5987 	 4.1000
  1.0000 	 1.6000 	 3.0345 	 32.1712 	 1.6164 	 25.1026 	 2.4423 	 41.4187 	 27.0078 	 16.3160 	 4.1000
  1.0000 	 1.7000 	 3.1148 	 31.7426 	 1.5228 	 28.5715 	 2.3983 	 43.1005 	 22.4597 	 14.5289 	 4.1000
  1.0000 	 1.8000 	 3.1862 	 31.3757 	 1.4383 	 32.6178 	 2.3608 	 44.6422 	 17.4359 	 12.0244 	 4.1000
  1.0000 	 1.0000 	 2.1618 	 38.8100 	 2.5761 	 8.2302 	 3.0347 	 26.5177 	 53.9334 	 18.2875 	 4.2000
  1.0000 	 1.1000 	 2.3653 	 37.0395 	 2.3584 	 10.8551 	 2.8879 	 29.5619 	 49.1468 	 18.7068 	 4.2000
  1.0000 	 1.2000 	 2.5349 	 35.7360 	 2.1748 	 13.4727 	 2.7710 	 32.2945 	 44.5603 	 18.8219 	 4.2000
  1.0000 	 1.3000 	 2.6783 	 34.7343 	 2.0176 	 16.1331 	 2.6766 	 34.7604 	 40.1245 	 18.6272 	 4.2000
  1.0000 	 1.4000 	 2.8013 	 33.9397 	 1.8811 	 18.8850 	 2.5992 	 36.9945 	 35.7832 	 18.1095 	 4.2000
  1.0000 	 1.5000 	 2.9079 	 33.2935 	 1.7612 	 21.7844 	 2.5350 	 39.0255 	 31.4678 	 17.2411 	 4.2000
  1.0000 	 1.6000 	 3.0012 	 32.7573 	 1.6548 	 24.9071 	 2.4813 	 40.8777 	 27.0852 	 15.9706 	 4.2000
  1.0000 	 1.7000 	 3.0834 	 32.3051 	 1.5595 	 28.3733 	 2.4358 	 42.5716 	 22.4898 	 14.1983 	 4.2000
  1.0000 	 1.8000 	 3.1566 	 31.9185 	 1.4735 	 32.4162 	 2.3971 	 44.1250 	 17.3995 	 11.7088 	 4.2000
  1.0000 	 1.0000 	 2.1086 	 39.8021 	 2.6327 	 7.9648 	 3.0904 	 25.8972 	 54.1542 	 17.9323 	 4.3000
  1.0000 	 1.1000 	 2.3169 	 37.8989 	 2.4104 	 10.6124 	 2.9393 	 28.9595 	 49.3529 	 18.3471 	 4.3000
  1.0000 	 1.2000 	 2.4905 	 36.5058 	 2.2231 	 13.2463 	 2.8189 	 31.7076 	 44.7474 	 18.4614 	 4.3000
  1.0000 	 1.3000 	 2.6373 	 35.4399 	 2.0627 	 15.9183 	 2.7216 	 34.1876 	 40.2887 	 18.2693 	 4.3000
  1.0000 	 1.4000 	 2.7633 	 34.5970 	 1.9236 	 18.6778 	 2.6418 	 36.4351 	 35.9204 	 17.7572 	 4.3000
  1.0000 	 1.5000 	 2.8724 	 33.9132 	 1.8014 	 21.5815 	 2.5756 	 38.4789 	 31.5733 	 16.8974 	 4.3000
  1.0000 	 1.6000 	 2.9678 	 33.3470 	 1.6930 	 24.7054 	 2.5201 	 40.3434 	 27.1528 	 15.6380 	 4.3000
  1.0000 	 1.7000 	 3.0521 	 32.8703 	 1.5960 	 28.1703 	 2.4732 	 42.0492 	 22.5094 	 13.8789 	 4.3000
  1.0000 	 1.8000 	 3.1270 	 32.4633 	 1.5085 	 32.2121 	 2.4332 	 43.6141 	 17.3505 	 11.4019 	 4.3000
  1.0000 	 1.0000 	 2.0553 	 40.8239 	 2.6892 	 7.6906 	 3.1461 	 25.2819 	 54.3655 	 17.5913 	 4.4000
  1.0000 	 1.1000 	 2.2684 	 38.7776 	 2.4623 	 10.3617 	 2.9906 	 28.3633 	 49.5497 	 18.0016 	 4.4000
  1.0000 	 1.2000 	 2.4461 	 37.2891 	 2.2712 	 13.0122 	 2.8667 	 31.1273 	 44.9255 	 18.1150 	 4.4000
  1.0000 	 1.3000 	 2.5964 	 36.1551 	 2.1077 	 15.6961 	 2.7664 	 33.6215 	 40.4440 	 17.9254 	 4.4000
  1.0000 	 1.4000 	 2.7252 	 35.2614 	 1.9658 	 18.4637 	 2.6842 	 35.8822 	 36.0489 	 17.4186 	 4.4000
  1.0000 	 1.5000 	 2.8368 	 34.5383 	 1.8414 	 21.3721 	 2.6160 	 37.9388 	 31.6701 	 16.5667 	 4.4000
  1.0000 	 1.6000 	 2.9345 	 33.9407 	 1.7310 	 24.4978 	 2.5588 	 39.8154 	 27.2113 	 15.3176 	 4.4000
  1.0000 	 1.7000 	 3.0207 	 33.4385 	 1.6323 	 27.9626 	 2.5104 	 41.5330 	 22.5193 	 13.5704 	 4.4000
  1.0000 	 1.8000 	 3.0974 	 33.0103 	 1.5433 	 32.0056 	 2.4692 	 43.1092 	 17.2898 	 11.1036 	 4.4000
  1.0000 	 1.0000 	 2.0020 	 41.8778 	 2.7456 	 7.4078 	 3.2016 	 24.6713 	 54.5680 	 17.2635 	 4.5000
  1.0000 	 1.1000 	 2.2200 	 39.6772 	 2.5141 	 10.1033 	 3.0418 	 27.7727 	 49.7378 	 17.6694 	 4.5000
  1.0000 	 1.2000 	 2.4016 	 38.0867 	 2.3192 	 12.7710 	 2.9143 	 30.5530 	 45.0951 	 17.7820 	 4.5000
  1.0000 	 1.3000 	 2.5554 	 36.8808 	 2.1525 	 15.4670 	 2.8112 	 33.0616 	 40.5911 	 17.5946 	 4.5000
  1.0000 	 1.4000 	 2.6871 	 35.9335 	 2.0079 	 18.2429 	 2.7265 	 35.3357 	 36.1692 	 17.0928 	 4.5000
  1.0000 	 1.5000 	 2.8013 	 35.1691 	 1.8811 	 21.1565 	 2.6563 	 37.4048 	 31.7588 	 16.2483 	 4.5000
  1.0000 	 1.6000 	 2.9012 	 34.5388 	 1.7688 	 24.2848 	 2.5974 	 39.2936 	 27.2617 	 15.0088 	 4.5000
  1.0000 	 1.7000 	 2.9894 	 34.0099 	 1.6683 	 27.7505 	 2.5475 	 41.0227 	 22.5203 	 13.2722 	 4.5000
  1.0000 	 1.8000 	 3.0678 	 33.5597 	 1.5778 	 31.7966 	 2.5050 	 42.6101 	 17.2184 	 10.8135 	 4.5000
