# d(e,e'p)n Central Kinematics Summary
# Beam Energy (Ei) = 6.600 GeV
# 4-Momentum Transfer (Q2) = 2.90 - 4.50 GeV (step: 0.10) 
# x-Bjorken (xbj) = 1.00 - 2.10 (step: 0.10) 
# Missing Momentum (Pr) = 0.00 - 1.10 GeV (step: 0.10) 
# Hadron Out-of-Plane Angle (phi) = 180 deg 
# thp = thq + thpq, phi = 180 ?  (q-vector scatters at smaller  angles than proton scattering angle)# 
# # 
# Tensor Polarized Deuterium: d(e,e'p) kinematics :
# 
# Header Definitions: 
# Pr   : Central Missing Momentum [GeV/c] 
# xbj  : Bjorken x  
# kf   : e- final momentum [GeV/c] 
# th_e : e- scattering angle [deg] 
# Pf   : final proton momentum [GeV/c] 
# th_p : proton scattering angle [deg] 
# q    : 3-momentum transfer [GeV] 
# th_q : relative angle between q-vector and +z (lab)  [deg] 
# th_nq: relative angle between q-vector and recoil neutron [deg] 
# th_pq: relative angle between q-vector and knocked-out proton [deg] 
# Q2   : 4-Momentum Transfer [GeV^2]  
# 
#! Pr[f,0]/ 	  xbj[f,1]/ 	 kf[f,2]/ 	 th_e[f,3]/ 	 Pf[f,4]/ 	 th_p[f,5]/ 	 q[f,6]/ 	 th_q[f,7]/ 	 th_nq[f,8]/ 	 th_pq[f,9]/ 	 Q2[f,10]/
  0.1000 	 1.0000 	 4.7882 	 18.8787 	 2.5771 	 34.6078 	 2.5851 	 36.8206 	 84.2979 	 2.2128 	 3.4000
  0.1000 	 1.0000 	 4.7349 	 19.2654 	 2.6337 	 34.0892 	 2.6417 	 36.2545 	 84.3331 	 2.1653 	 3.5000
  0.1000 	 1.0000 	 4.6816 	 19.6534 	 2.6902 	 33.5809 	 2.6982 	 35.7009 	 84.3664 	 2.1200 	 3.6000
  0.1000 	 1.0000 	 4.6283 	 20.0428 	 2.7466 	 33.0826 	 2.7546 	 35.1591 	 84.3982 	 2.0765 	 3.7000
  0.1000 	 1.0000 	 4.5750 	 20.4339 	 2.8029 	 32.5937 	 2.8108 	 34.6286 	 84.4284 	 2.0350 	 3.8000
  0.1000 	 1.0000 	 4.5217 	 20.8269 	 2.8590 	 32.1137 	 2.8669 	 34.1088 	 84.4572 	 1.9951 	 3.9000
  0.1000 	 1.0000 	 4.4684 	 21.2221 	 2.9150 	 31.6424 	 2.9229 	 33.5992 	 84.4848 	 1.9568 	 4.0000
  0.1000 	 1.0000 	 4.4151 	 21.6197 	 2.9710 	 31.1792 	 2.9789 	 33.0992 	 84.5111 	 1.9200 	 4.1000
  0.1000 	 1.1000 	 4.6138 	 21.1438 	 2.7620 	 34.5589 	 2.8364 	 35.9259 	 41.2163 	 1.3670 	 4.1000
  0.1000 	 1.0000 	 4.3618 	 22.0200 	 3.0268 	 30.7238 	 3.0347 	 32.6085 	 84.5362 	 1.8847 	 4.2000
  0.1000 	 1.1000 	 4.5653 	 21.5177 	 2.8131 	 34.1051 	 2.8879 	 35.4389 	 40.9033 	 1.3338 	 4.2000
  0.1000 	 1.0000 	 4.3086 	 22.4230 	 3.0826 	 30.2759 	 3.0904 	 32.1266 	 84.5603 	 1.8507 	 4.3000
  0.1000 	 1.1000 	 4.5169 	 21.8933 	 2.8641 	 33.6586 	 2.9393 	 34.9605 	 40.5969 	 1.3019 	 4.3000
  0.1000 	 1.0000 	 4.2553 	 22.8292 	 3.1382 	 29.8351 	 3.1461 	 31.6530 	 84.5834 	 1.8179 	 4.4000
  0.1000 	 1.1000 	 4.4684 	 22.2709 	 2.9150 	 33.2189 	 2.9906 	 34.4902 	 40.2971 	 1.2713 	 4.4000
  0.1000 	 1.0000 	 4.2020 	 23.2387 	 3.1938 	 29.4012 	 3.2016 	 31.1875 	 84.6055 	 1.7863 	 4.5000
  0.1000 	 1.1000 	 4.4200 	 22.6505 	 2.9659 	 32.7859 	 3.0418 	 34.0279 	 40.0035 	 1.2419 	 4.5000
  0.2000 	 1.0000 	 5.0546 	 16.9548 	 2.2745 	 34.8926 	 2.2996 	 39.8649 	 80.2942 	 4.9723 	 2.9000
  0.2000 	 1.0000 	 5.0013 	 17.3391 	 2.3320 	 34.3742 	 2.3571 	 39.2248 	 80.3801 	 4.8506 	 3.0000
  0.2000 	 1.0000 	 4.9480 	 17.7235 	 2.3893 	 33.8662 	 2.4143 	 38.6012 	 80.4612 	 4.7350 	 3.1000
  0.2000 	 1.0000 	 4.8947 	 18.1080 	 2.4465 	 33.3680 	 2.4714 	 37.9932 	 80.5378 	 4.6252 	 3.2000
  0.2000 	 1.0000 	 4.8414 	 18.4930 	 2.5035 	 32.8793 	 2.5283 	 37.3999 	 80.6103 	 4.5206 	 3.3000
  0.2000 	 1.0000 	 4.7882 	 18.8787 	 2.5603 	 32.3997 	 2.5851 	 36.8206 	 80.6790 	 4.4209 	 3.4000
  0.2000 	 1.0000 	 4.7349 	 19.2654 	 2.6170 	 31.9287 	 2.6417 	 36.2545 	 80.7442 	 4.3258 	 3.5000
  0.2000 	 1.1000 	 4.9044 	 18.9264 	 2.4361 	 34.9113 	 2.5249 	 39.0529 	 61.6069 	 4.1416 	 3.5000
  0.2000 	 1.0000 	 4.6816 	 19.6534 	 2.6736 	 31.4660 	 2.6982 	 35.7009 	 80.8063 	 4.2349 	 3.6000
  0.2000 	 1.1000 	 4.8560 	 19.2938 	 2.4880 	 34.4532 	 2.5771 	 38.5049 	 61.5180 	 4.0517 	 3.6000
  0.2000 	 1.0000 	 4.6283 	 20.0428 	 2.7300 	 31.0112 	 2.7546 	 35.1591 	 80.8653 	 4.1479 	 3.7000
  0.2000 	 1.1000 	 4.8075 	 19.6618 	 2.5397 	 34.0025 	 2.6292 	 37.9684 	 61.4309 	 3.9658 	 3.7000
  0.2000 	 1.0000 	 4.5750 	 20.4339 	 2.7863 	 30.5640 	 2.8108 	 34.6286 	 80.9216 	 4.0646 	 3.8000
  0.2000 	 1.1000 	 4.7591 	 20.0306 	 2.5913 	 33.5591 	 2.6812 	 37.4427 	 61.3455 	 3.8836 	 3.8000
  0.2000 	 1.0000 	 4.5217 	 20.8269 	 2.8424 	 30.1240 	 2.8669 	 34.1088 	 80.9753 	 3.9848 	 3.9000
  0.2000 	 1.1000 	 4.7106 	 20.4004 	 2.6427 	 33.1226 	 2.7331 	 36.9274 	 61.2618 	 3.8048 	 3.9000
  0.2000 	 1.0000 	 4.4684 	 21.2221 	 2.8985 	 29.6911 	 2.9229 	 33.5992 	 81.0266 	 3.9081 	 4.0000
  0.2000 	 1.1000 	 4.6622 	 20.7714 	 2.6941 	 32.6927 	 2.7848 	 36.4219 	 61.1797 	 3.7292 	 4.0000
  0.2000 	 1.0000 	 4.4151 	 21.6197 	 2.9545 	 29.2647 	 2.9789 	 33.0992 	 81.0757 	 3.8345 	 4.1000
  0.2000 	 1.1000 	 4.6138 	 21.1438 	 2.7453 	 32.2692 	 2.8364 	 35.9259 	 61.0993 	 3.6567 	 4.1000
  0.2000 	 1.0000 	 4.3618 	 22.0200 	 3.0103 	 28.8448 	 3.0347 	 32.6085 	 81.1227 	 3.7637 	 4.2000
  0.2000 	 1.1000 	 4.5653 	 21.5177 	 2.7965 	 31.8519 	 2.8879 	 35.4389 	 61.0205 	 3.5870 	 4.2000
  0.2000 	 1.0000 	 4.3086 	 22.4230 	 3.0661 	 28.4310 	 3.0904 	 32.1266 	 81.1677 	 3.6956 	 4.3000
  0.2000 	 1.1000 	 4.5169 	 21.8933 	 2.8475 	 31.4405 	 2.9393 	 34.9605 	 60.9432 	 3.5200 	 4.3000
  0.2000 	 1.2000 	 4.6905 	 21.4795 	 2.6641 	 34.8887 	 2.8189 	 37.5370 	 37.9871 	 2.6483 	 4.3000
  0.2000 	 1.0000 	 4.2553 	 22.8292 	 3.1218 	 28.0230 	 3.1461 	 31.6530 	 81.2109 	 3.6300 	 4.4000
  0.2000 	 1.1000 	 4.4684 	 22.2709 	 2.8985 	 31.0348 	 2.9906 	 34.4902 	 60.8676 	 3.4555 	 4.4000
  0.2000 	 1.2000 	 4.6461 	 21.8357 	 2.7112 	 34.4868 	 2.8667 	 37.0717 	 37.6876 	 2.5849 	 4.4000
  0.2000 	 1.0000 	 4.2020 	 23.2387 	 3.1774 	 27.6206 	 3.2016 	 31.1875 	 81.2523 	 3.5668 	 4.5000
  0.2000 	 1.1000 	 4.4200 	 22.6505 	 2.9494 	 30.6346 	 3.0418 	 34.0279 	 60.7934 	 3.3933 	 4.5000
  0.2000 	 1.2000 	 4.6016 	 22.1931 	 2.7581 	 34.0901 	 2.9143 	 36.6140 	 37.3934 	 2.5239 	 4.5000
  0.3000 	 1.0000 	 5.0546 	 16.9548 	 2.2467 	 32.4162 	 2.2996 	 39.8649 	 76.1286 	 7.4487 	 2.9000
  0.3000 	 1.0000 	 5.0013 	 17.3391 	 2.3043 	 31.9595 	 2.3571 	 39.2248 	 76.2557 	 7.2653 	 3.0000
  0.3000 	 1.1000 	 5.1467 	 17.0907 	 2.1466 	 34.7698 	 2.2610 	 41.9866 	 64.0092 	 7.2168 	 3.0000
  0.3000 	 1.0000 	 4.9480 	 17.7235 	 2.3617 	 31.5099 	 2.4143 	 38.6012 	 76.3756 	 7.0913 	 3.1000
  0.3000 	 1.1000 	 5.0982 	 17.4584 	 2.1993 	 34.3285 	 2.3142 	 41.3716 	 64.0156 	 7.0431 	 3.1000
  0.3000 	 1.0000 	 4.8947 	 18.1080 	 2.4190 	 31.0672 	 2.4714 	 37.9932 	 76.4889 	 6.9260 	 3.2000
  0.3000 	 1.1000 	 5.0498 	 17.8256 	 2.2519 	 33.8934 	 2.3671 	 40.7716 	 64.0194 	 6.8781 	 3.2000
  0.3000 	 1.0000 	 4.8414 	 18.4930 	 2.4761 	 30.6313 	 2.5283 	 37.3999 	 76.5962 	 6.7686 	 3.3000
  0.3000 	 1.1000 	 5.0013 	 18.1925 	 2.3043 	 33.4645 	 2.4199 	 40.1856 	 64.0208 	 6.7211 	 3.3000
  0.3000 	 1.0000 	 4.7882 	 18.8787 	 2.5330 	 30.2020 	 2.5851 	 36.8206 	 76.6978 	 6.6187 	 3.4000
  0.3000 	 1.1000 	 4.9529 	 18.5593 	 2.3565 	 33.0415 	 2.4725 	 39.6129 	 64.0202 	 6.5714 	 3.4000
  0.3000 	 1.0000 	 4.7349 	 19.2654 	 2.5897 	 29.7789 	 2.6417 	 36.2545 	 76.7943 	 6.4756 	 3.5000
  0.3000 	 1.1000 	 4.9044 	 18.9264 	 2.4086 	 32.6243 	 2.5249 	 39.0529 	 64.0177 	 6.4286 	 3.5000
  0.3000 	 1.0000 	 4.6816 	 19.6534 	 2.6463 	 29.3620 	 2.6982 	 35.7009 	 76.8861 	 6.3389 	 3.6000
  0.3000 	 1.1000 	 4.8560 	 19.2938 	 2.4605 	 32.2127 	 2.5771 	 38.5049 	 64.0137 	 6.2922 	 3.6000
  0.3000 	 1.0000 	 4.6283 	 20.0428 	 2.7028 	 28.9510 	 2.7546 	 35.1591 	 76.9734 	 6.2081 	 3.7000
  0.3000 	 1.1000 	 4.8075 	 19.6618 	 2.5123 	 31.8066 	 2.6292 	 37.9684 	 64.0083 	 6.1617 	 3.7000
  0.3000 	 1.2000 	 4.9569 	 19.3604 	 2.3522 	 34.8277 	 2.5298 	 40.5091 	 50.9125 	 5.6813 	 3.7000
  0.3000 	 1.0000 	 4.5750 	 20.4339 	 2.7591 	 28.5457 	 2.8108 	 34.6286 	 77.0567 	 6.0829 	 3.8000
  0.3000 	 1.1000 	 4.7591 	 20.0306 	 2.5639 	 31.4059 	 2.6812 	 37.4427 	 64.0017 	 6.0368 	 3.8000
  0.3000 	 1.2000 	 4.9125 	 19.7122 	 2.3999 	 34.4323 	 2.5783 	 39.9902 	 50.7857 	 5.5579 	 3.8000
  0.3000 	 1.0000 	 4.5217 	 20.8269 	 2.8154 	 28.1460 	 2.8669 	 34.1088 	 77.1361 	 5.9628 	 3.9000
  0.3000 	 1.1000 	 4.7106 	 20.4004 	 2.6155 	 31.0103 	 2.7331 	 36.9274 	 63.9939 	 5.9171 	 3.9000
  0.3000 	 1.2000 	 4.8681 	 20.0643 	 2.4475 	 34.0417 	 2.6267 	 39.4814 	 50.6607 	 5.4397 	 3.9000
  0.3000 	 1.0000 	 4.4684 	 21.2221 	 2.8715 	 27.7515 	 2.9229 	 33.5992 	 77.2120 	 5.8477 	 4.0000
  0.3000 	 1.1000 	 4.6622 	 20.7714 	 2.6669 	 30.6198 	 2.7848 	 36.4219 	 63.9853 	 5.8022 	 4.0000
  0.3000 	 1.2000 	 4.8237 	 20.4170 	 2.4950 	 33.6556 	 2.6749 	 38.9820 	 50.5377 	 5.3264 	 4.0000
  0.3000 	 1.0000 	 4.4151 	 21.6197 	 2.9275 	 27.3622 	 2.9789 	 33.0992 	 77.2846 	 5.7371 	 4.1000
  0.3000 	 1.1000 	 4.6138 	 21.1438 	 2.7182 	 30.2341 	 2.8364 	 35.9259 	 63.9758 	 5.6918 	 4.1000
  0.3000 	 1.2000 	 4.7793 	 20.7703 	 2.5424 	 33.2741 	 2.7231 	 38.4918 	 50.4165 	 5.2177 	 4.1000
  0.3000 	 1.0000 	 4.3618 	 22.0200 	 2.9834 	 26.9778 	 3.0347 	 32.6085 	 77.3541 	 5.6307 	 4.2000
  0.3000 	 1.1000 	 4.5653 	 21.5177 	 2.7694 	 29.8531 	 2.8879 	 35.4389 	 63.9656 	 5.5858 	 4.2000
  0.3000 	 1.2000 	 4.7349 	 21.1244 	 2.5897 	 32.8969 	 2.7710 	 38.0102 	 50.2972 	 5.1133 	 4.2000
  0.3000 	 1.0000 	 4.3086 	 22.4230 	 3.0392 	 26.5982 	 3.0904 	 32.1266 	 77.4207 	 5.5284 	 4.3000
  0.3000 	 1.1000 	 4.5169 	 21.8933 	 2.8205 	 29.4767 	 2.9393 	 34.9605 	 63.9548 	 5.4837 	 4.3000
  0.3000 	 1.2000 	 4.6905 	 21.4795 	 2.6369 	 32.5239 	 2.8189 	 37.5370 	 50.1797 	 5.0130 	 4.3000
  0.3000 	 1.0000 	 4.2553 	 22.8292 	 3.0950 	 26.2231 	 3.1461 	 31.6530 	 77.4846 	 5.4299 	 4.4000
  0.3000 	 1.1000 	 4.4684 	 22.2709 	 2.8715 	 29.1047 	 2.9906 	 34.4902 	 63.9434 	 5.3855 	 4.4000
  0.3000 	 1.2000 	 4.6461 	 21.8357 	 2.6840 	 32.1551 	 2.8667 	 37.0717 	 50.0642 	 4.9165 	 4.4000
  0.3000 	 1.0000 	 4.2020 	 23.2387 	 3.1506 	 25.8524 	 3.2016 	 31.1875 	 77.5459 	 5.3350 	 4.5000
  0.3000 	 1.1000 	 4.4200 	 22.6505 	 2.9224 	 28.7370 	 3.0418 	 34.0279 	 63.9315 	 5.2909 	 4.5000
  0.3000 	 1.2000 	 4.6016 	 22.1931 	 2.7310 	 31.7904 	 2.9143 	 36.6140 	 49.9504 	 4.8237 	 4.5000
  0.4000 	 1.0000 	 5.0546 	 16.9548 	 2.2088 	 29.9490 	 2.2996 	 39.8649 	 71.9714 	 9.9158 	 2.9000
  0.4000 	 1.1000 	 5.1951 	 16.7223 	 2.0553 	 32.6565 	 2.2077 	 42.6173 	 62.7212 	 9.9608 	 2.9000
  0.4000 	 1.0000 	 5.0013 	 17.3391 	 2.2666 	 29.5549 	 2.3571 	 39.2248 	 72.1404 	 9.6699 	 3.0000
  0.4000 	 1.1000 	 5.1467 	 17.0907 	 2.1084 	 32.2719 	 2.2610 	 41.9866 	 62.8050 	 9.7146 	 3.0000
  0.4000 	 1.0000 	 4.9480 	 17.7235 	 2.3242 	 29.1645 	 2.4143 	 38.6012 	 72.2997 	 9.4366 	 3.1000
  0.4000 	 1.1000 	 5.0982 	 17.4584 	 2.1614 	 31.8904 	 2.3142 	 41.3716 	 62.8822 	 9.4812 	 3.1000
  0.4000 	 1.2000 	 5.2234 	 17.2464 	 2.0242 	 34.6929 	 2.2350 	 43.8603 	 53.7305 	 9.1675 	 3.1000
  0.4000 	 1.0000 	 4.8947 	 18.1080 	 2.3815 	 28.7781 	 2.4714 	 37.9932 	 72.4503 	 9.2151 	 3.2000
  0.4000 	 1.1000 	 5.0498 	 17.8256 	 2.2141 	 31.5122 	 2.3671 	 40.7716 	 62.9534 	 9.2594 	 3.2000
  0.4000 	 1.2000 	 5.1789 	 17.6000 	 2.0730 	 34.3236 	 2.2846 	 43.2704 	 53.7059 	 8.9468 	 3.2000
  0.4000 	 1.0000 	 4.8414 	 18.4930 	 2.4387 	 28.3957 	 2.5283 	 37.3999 	 72.5927 	 9.0043 	 3.3000
  0.4000 	 1.1000 	 5.0013 	 18.1925 	 2.2666 	 31.1372 	 2.4199 	 40.1856 	 63.0191 	 9.0483 	 3.3000
  0.4000 	 1.2000 	 5.1345 	 17.9529 	 2.1217 	 33.9570 	 2.3340 	 42.6940 	 53.6787 	 8.7370 	 3.3000
  0.4000 	 1.0000 	 4.7882 	 18.8787 	 2.4957 	 28.0172 	 2.5851 	 36.8206 	 72.7277 	 8.8035 	 3.4000
  0.4000 	 1.1000 	 4.9529 	 18.5593 	 2.3189 	 30.7657 	 2.4725 	 39.6129 	 63.0799 	 8.8472 	 3.4000
  0.4000 	 1.2000 	 5.0901 	 18.3052 	 2.1702 	 33.5931 	 2.3832 	 42.1302 	 53.6490 	 8.5371 	 3.4000
  0.4000 	 1.0000 	 4.7349 	 19.2654 	 2.5526 	 27.6426 	 2.6417 	 36.2545 	 72.8558 	 8.6119 	 3.5000
  0.4000 	 1.1000 	 4.9044 	 18.9264 	 2.3711 	 30.3975 	 2.5249 	 39.0529 	 63.1363 	 8.6554 	 3.5000
  0.4000 	 1.2000 	 5.0457 	 18.6571 	 2.2185 	 33.2320 	 2.4322 	 41.5785 	 53.6174 	 8.3465 	 3.5000
  0.4000 	 1.0000 	 4.6816 	 19.6534 	 2.6093 	 27.2720 	 2.6982 	 35.7009 	 72.9776 	 8.4289 	 3.6000
  0.4000 	 1.1000 	 4.8560 	 19.2938 	 2.4232 	 30.0328 	 2.5771 	 38.5049 	 63.1886 	 8.4721 	 3.6000
  0.4000 	 1.2000 	 5.0013 	 19.0087 	 2.2666 	 32.8739 	 2.4811 	 41.0383 	 53.5840 	 8.1645 	 3.6000
  0.4000 	 1.0000 	 4.6283 	 20.0428 	 2.6659 	 26.9052 	 2.7546 	 35.1591 	 73.0936 	 8.2539 	 3.7000
  0.4000 	 1.1000 	 4.8075 	 19.6618 	 2.4750 	 29.6715 	 2.6292 	 37.9684 	 63.2371 	 8.2969 	 3.7000
  0.4000 	 1.2000 	 4.9569 	 19.3604 	 2.3146 	 32.5186 	 2.5298 	 40.5091 	 53.5492 	 7.9905 	 3.7000
  0.4000 	 1.0000 	 4.5750 	 20.4339 	 2.7223 	 26.5422 	 2.8108 	 34.6286 	 73.2040 	 8.0864 	 3.8000
  0.4000 	 1.1000 	 4.7591 	 20.0306 	 2.5268 	 29.3136 	 2.6812 	 37.4427 	 63.2823 	 8.1290 	 3.8000
  0.4000 	 1.2000 	 4.9125 	 19.7122 	 2.3624 	 32.1663 	 2.5783 	 39.9902 	 53.5131 	 7.8239 	 3.8000
  0.4000 	 1.0000 	 4.5217 	 20.8269 	 2.7786 	 26.1829 	 2.8669 	 34.1088 	 73.3094 	 7.9259 	 3.9000
  0.4000 	 1.1000 	 4.7106 	 20.4004 	 2.5784 	 28.9592 	 2.7331 	 36.9274 	 63.3244 	 7.9682 	 3.9000
  0.4000 	 1.2000 	 4.8681 	 20.0643 	 2.4102 	 31.8170 	 2.6267 	 39.4814 	 53.4760 	 7.6644 	 3.9000
  0.4000 	 1.3000 	 5.0013 	 19.7926 	 2.2666 	 34.8426 	 2.5408 	 41.7995 	 43.3415 	 6.9569 	 3.9000
  0.4000 	 1.0000 	 4.4684 	 21.2221 	 2.8348 	 25.8272 	 2.9229 	 33.5992 	 73.4101 	 7.7720 	 4.0000
  0.4000 	 1.1000 	 4.6622 	 20.7714 	 2.6299 	 28.6080 	 2.7848 	 36.4219 	 63.3637 	 7.8139 	 4.0000
  0.4000 	 1.2000 	 4.8237 	 20.4170 	 2.4578 	 31.4706 	 2.6749 	 38.9820 	 53.4380 	 7.5114 	 4.0000
  0.4000 	 1.3000 	 4.9603 	 20.1308 	 2.3109 	 34.5029 	 2.5862 	 41.3077 	 43.1986 	 6.8048 	 4.0000
  0.4000 	 1.0000 	 4.4151 	 21.6197 	 2.8909 	 25.4751 	 2.9789 	 33.0992 	 73.5064 	 7.6241 	 4.1000
  0.4000 	 1.1000 	 4.6138 	 21.1438 	 2.6813 	 28.2602 	 2.8364 	 35.9259 	 63.4003 	 7.6657 	 4.1000
  0.4000 	 1.2000 	 4.7793 	 20.7703 	 2.5052 	 31.1272 	 2.7231 	 38.4918 	 53.3993 	 7.3645 	 4.1000
  0.4000 	 1.3000 	 4.9193 	 20.4692 	 2.3551 	 34.1657 	 2.6315 	 40.8246 	 43.0569 	 6.6588 	 4.1000
  0.4000 	 1.0000 	 4.3618 	 22.0200 	 2.9468 	 25.1265 	 3.0347 	 32.6085 	 73.5985 	 7.4820 	 4.2000
  0.4000 	 1.1000 	 4.5653 	 21.5177 	 2.7325 	 27.9156 	 2.8879 	 35.4389 	 63.4345 	 7.5233 	 4.2000
  0.4000 	 1.2000 	 4.7349 	 21.1244 	 2.5526 	 30.7868 	 2.7710 	 38.0102 	 53.3600 	 7.2234 	 4.2000
  0.4000 	 1.3000 	 4.8783 	 20.8079 	 2.3992 	 33.8311 	 2.6766 	 40.3498 	 42.9164 	 6.5187 	 4.2000
  0.4000 	 1.0000 	 4.3086 	 22.4230 	 3.0027 	 24.7812 	 3.0904 	 32.1266 	 73.6868 	 7.3454 	 4.3000
  0.4000 	 1.1000 	 4.5169 	 21.8933 	 2.7837 	 27.5741 	 2.9393 	 34.9605 	 63.4665 	 7.3863 	 4.3000
  0.4000 	 1.2000 	 4.6905 	 21.4795 	 2.5999 	 30.4492 	 2.8189 	 37.5370 	 53.3203 	 7.0878 	 4.3000
  0.4000 	 1.3000 	 4.8373 	 21.1470 	 2.4431 	 33.4989 	 2.7216 	 39.8831 	 42.7773 	 6.3842 	 4.3000
  0.4000 	 1.0000 	 4.2553 	 22.8292 	 3.0585 	 24.4393 	 3.1461 	 31.6530 	 73.7715 	 7.2138 	 4.4000
  0.4000 	 1.1000 	 4.4684 	 22.2709 	 2.8348 	 27.2358 	 2.9906 	 34.4902 	 63.4965 	 7.2544 	 4.4000
  0.4000 	 1.2000 	 4.6461 	 21.8357 	 2.6470 	 30.1145 	 2.8667 	 37.0717 	 53.2802 	 6.9572 	 4.4000
  0.4000 	 1.3000 	 4.7964 	 21.4867 	 2.4870 	 33.1693 	 2.7664 	 39.4240 	 42.6396 	 6.2547 	 4.4000
  0.4000 	 1.0000 	 4.2020 	 23.2387 	 3.1142 	 24.1004 	 3.2016 	 31.1875 	 73.8528 	 7.0870 	 4.5000
  0.4000 	 1.1000 	 4.4200 	 22.6505 	 2.8858 	 26.9006 	 3.0418 	 34.0279 	 63.5246 	 7.1273 	 4.5000
  0.4000 	 1.2000 	 4.6016 	 22.1931 	 2.6941 	 29.7826 	 2.9143 	 36.6140 	 53.2399 	 6.8315 	 4.5000
  0.4000 	 1.3000 	 4.7554 	 21.8270 	 2.5307 	 32.8421 	 2.8112 	 38.9723 	 42.5033 	 6.1302 	 4.5000
  0.5000 	 1.0000 	 5.0546 	 16.9548 	 2.1619 	 27.4897 	 2.2996 	 39.8649 	 67.9143 	 12.3752 	 2.9000
  0.5000 	 1.1000 	 5.1951 	 16.7223 	 2.0078 	 30.1199 	 2.2077 	 42.6173 	 60.3361 	 12.4974 	 2.9000
  0.5000 	 1.2000 	 5.3122 	 16.5357 	 1.8777 	 32.7921 	 2.1351 	 45.0832 	 53.0790 	 12.2911 	 2.9000
  0.5000 	 1.0000 	 5.0013 	 17.3391 	 2.2198 	 27.1594 	 2.3571 	 39.2248 	 68.1258 	 12.0653 	 3.0000
  0.5000 	 1.1000 	 5.1467 	 17.0907 	 2.0611 	 29.7998 	 2.2610 	 41.9866 	 60.4822 	 12.1868 	 3.0000
  0.5000 	 1.2000 	 5.2678 	 16.8917 	 1.9273 	 32.4826 	 2.1851 	 44.4643 	 53.1491 	 11.9817 	 3.0000
  0.5000 	 1.0000 	 4.9480 	 17.7235 	 2.2776 	 26.8296 	 2.4143 	 38.6012 	 68.3252 	 11.7716 	 3.1000
  0.5000 	 1.1000 	 5.0982 	 17.4584 	 2.1142 	 29.4794 	 2.3142 	 41.3716 	 60.6185 	 11.8923 	 3.1000
  0.5000 	 1.2000 	 5.2234 	 17.2464 	 1.9765 	 32.1719 	 2.2350 	 43.8603 	 53.2115 	 11.6884 	 3.1000
  0.5000 	 1.3000 	 5.3293 	 17.0729 	 1.8586 	 34.9566 	 2.1714 	 46.1010 	 45.9295 	 11.1444 	 3.1000
  0.5000 	 1.0000 	 4.8947 	 18.1080 	 2.3351 	 26.5005 	 2.4714 	 37.9932 	 68.5134 	 11.4927 	 3.2000
  0.5000 	 1.1000 	 5.0498 	 17.8256 	 2.1671 	 29.1590 	 2.3671 	 40.7716 	 60.7457 	 11.6126 	 3.2000
  0.5000 	 1.2000 	 5.1789 	 17.6000 	 2.0256 	 31.8606 	 2.2846 	 43.2704 	 53.2668 	 11.4099 	 3.2000
  0.5000 	 1.3000 	 5.2883 	 17.4158 	 1.9044 	 34.6556 	 2.2183 	 45.5229 	 45.8983 	 10.8673 	 3.2000
  0.5000 	 1.0000 	 4.8414 	 18.4930 	 2.3924 	 26.1725 	 2.5283 	 37.3999 	 68.6914 	 11.2275 	 3.3000
  0.5000 	 1.1000 	 5.0013 	 18.1925 	 2.2198 	 28.8390 	 2.4199 	 40.1856 	 60.8647 	 11.3466 	 3.3000
  0.5000 	 1.2000 	 5.1345 	 17.9529 	 2.0744 	 31.5490 	 2.3340 	 42.6940 	 53.3159 	 11.1450 	 3.3000
  0.5000 	 1.3000 	 5.2473 	 17.7574 	 1.9500 	 34.3537 	 2.2649 	 44.9575 	 45.8627 	 10.6037 	 3.3000
  0.5000 	 1.0000 	 4.7882 	 18.8787 	 2.4496 	 25.8457 	 2.5851 	 36.8206 	 68.8601 	 10.9750 	 3.4000
  0.5000 	 1.1000 	 4.9529 	 18.5593 	 2.2723 	 28.5197 	 2.4725 	 39.6129 	 60.9762 	 11.0932 	 3.4000
  0.5000 	 1.2000 	 5.0901 	 18.3052 	 2.1231 	 31.2375 	 2.3832 	 42.1302 	 53.3595 	 10.8927 	 3.4000
  0.5000 	 1.3000 	 5.2063 	 18.0981 	 1.9954 	 34.0513 	 2.3114 	 44.4041 	 45.8234 	 10.3528 	 3.4000
  0.5000 	 1.0000 	 4.7349 	 19.2654 	 2.5066 	 25.5204 	 2.6417 	 36.2545 	 69.0202 	 10.7341 	 3.5000
  0.5000 	 1.1000 	 4.9044 	 18.9264 	 2.3247 	 28.2013 	 2.5249 	 39.0529 	 61.0809 	 10.8516 	 3.5000
  0.5000 	 1.2000 	 5.0457 	 18.6571 	 2.1715 	 30.9264 	 2.4322 	 41.5785 	 53.3980 	 10.6521 	 3.5000
  0.5000 	 1.3000 	 5.1653 	 18.4380 	 2.0406 	 33.7486 	 2.3576 	 43.8623 	 45.7808 	 10.1137 	 3.5000
  0.5000 	 1.0000 	 4.6816 	 19.6534 	 2.5634 	 25.1966 	 2.6982 	 35.7009 	 69.1722 	 10.5042 	 3.6000
  0.5000 	 1.1000 	 4.8560 	 19.2938 	 2.3768 	 27.8841 	 2.5771 	 38.5049 	 61.1793 	 10.6208 	 3.6000
  0.5000 	 1.2000 	 5.0013 	 19.0087 	 2.2198 	 30.6159 	 2.4811 	 41.0383 	 53.4320 	 10.4224 	 3.6000
  0.5000 	 1.3000 	 5.1243 	 18.7772 	 2.0857 	 33.4460 	 2.4037 	 43.3314 	 45.7353 	 9.8854 	 3.6000
  0.5000 	 1.0000 	 4.6283 	 20.0428 	 2.6201 	 24.8747 	 2.7546 	 35.1591 	 69.3169 	 10.2845 	 3.7000
  0.5000 	 1.1000 	 4.8075 	 19.6618 	 2.4288 	 27.5682 	 2.6292 	 37.9684 	 61.2720 	 10.4002 	 3.7000
  0.5000 	 1.2000 	 4.9569 	 19.3604 	 2.2680 	 30.3062 	 2.5298 	 40.5091 	 53.4619 	 10.2028 	 3.7000
  0.5000 	 1.3000 	 5.0833 	 19.1159 	 2.1305 	 33.1437 	 2.4496 	 42.8109 	 45.6875 	 9.6672 	 3.7000
  0.5000 	 1.0000 	 4.5750 	 20.4339 	 2.6766 	 24.5545 	 2.8108 	 34.6286 	 69.4548 	 10.0742 	 3.8000
  0.5000 	 1.1000 	 4.7591 	 20.0306 	 2.4807 	 27.2537 	 2.6812 	 37.4427 	 61.3594 	 10.1890 	 3.8000
  0.5000 	 1.2000 	 4.9125 	 19.7122 	 2.3159 	 29.9976 	 2.5783 	 39.9902 	 53.4882 	 9.9927 	 3.8000
  0.5000 	 1.3000 	 5.0423 	 19.4543 	 2.1753 	 32.8420 	 2.4953 	 42.3005 	 45.6375 	 9.4585 	 3.8000
  0.5000 	 1.0000 	 4.5217 	 20.8269 	 2.7330 	 24.2361 	 2.8669 	 34.1088 	 69.5862 	 9.8727 	 3.9000
  0.5000 	 1.1000 	 4.7106 	 20.4004 	 2.5324 	 26.9407 	 2.7331 	 36.9274 	 61.4420 	 9.9866 	 3.9000
  0.5000 	 1.2000 	 4.8681 	 20.0643 	 2.3638 	 29.6901 	 2.6267 	 39.4814 	 53.5111 	 9.7913 	 3.9000
  0.5000 	 1.3000 	 5.0013 	 19.7926 	 2.2198 	 32.5409 	 2.5408 	 41.7995 	 45.5857 	 9.2586 	 3.9000
  0.5000 	 1.0000 	 4.4684 	 21.2221 	 2.7893 	 23.9197 	 2.9229 	 33.5992 	 69.7118 	 9.6795 	 4.0000
  0.5000 	 1.1000 	 4.6622 	 20.7714 	 2.5840 	 26.6294 	 2.7848 	 36.4219 	 61.5200 	 9.7925 	 4.0000
  0.5000 	 1.2000 	 4.8237 	 20.4170 	 2.4115 	 29.3838 	 2.6749 	 38.9820 	 53.5310 	 9.5982 	 4.0000
  0.5000 	 1.3000 	 4.9603 	 20.1308 	 2.2643 	 32.2407 	 2.5862 	 41.3077 	 45.5324 	 9.0670 	 4.0000
  0.5000 	 1.0000 	 4.4151 	 21.6197 	 2.8455 	 23.6052 	 2.9789 	 33.0992 	 69.8318 	 9.4940 	 4.1000
  0.5000 	 1.1000 	 4.6138 	 21.1438 	 2.6355 	 26.3197 	 2.8364 	 35.9259 	 61.5939 	 9.6062 	 4.1000
  0.5000 	 1.2000 	 4.7793 	 20.7703 	 2.4591 	 29.0789 	 2.7231 	 38.4918 	 53.5481 	 9.4129 	 4.1000
  0.5000 	 1.3000 	 4.9193 	 20.4692 	 2.3086 	 31.9414 	 2.6315 	 40.8246 	 45.4779 	 8.8832 	 4.1000
  0.5000 	 1.4000 	 5.0394 	 20.2214 	 2.1784 	 34.9976 	 2.5565 	 42.9493 	 37.0652 	 7.9517 	 4.1000
  0.5000 	 1.0000 	 4.3618 	 22.0200 	 2.9015 	 23.2927 	 3.0347 	 32.6085 	 69.9467 	 9.3158 	 4.2000
  0.5000 	 1.1000 	 4.5653 	 21.5177 	 2.6869 	 26.0118 	 2.8879 	 35.4389 	 61.6639 	 9.4271 	 4.2000
  0.5000 	 1.2000 	 4.7349 	 21.1244 	 2.5066 	 28.7754 	 2.7710 	 38.0102 	 53.5628 	 9.2348 	 4.2000
  0.5000 	 1.3000 	 4.8783 	 20.8079 	 2.3528 	 31.6432 	 2.6766 	 40.3498 	 45.4222 	 8.7066 	 4.2000
  0.5000 	 1.4000 	 5.0013 	 20.5477 	 2.2198 	 34.7074 	 2.5992 	 42.4823 	 36.9132 	 7.7749 	 4.2000
  0.5000 	 1.0000 	 4.3086 	 22.4230 	 2.9575 	 22.9821 	 3.0904 	 32.1266 	 70.0567 	 9.1445 	 4.3000
  0.5000 	 1.1000 	 4.5169 	 21.8933 	 2.7381 	 25.7056 	 2.9393 	 34.9605 	 61.7303 	 9.2549 	 4.3000
  0.5000 	 1.2000 	 4.6905 	 21.4795 	 2.5539 	 28.4734 	 2.8189 	 37.5370 	 53.5752 	 9.0635 	 4.3000
  0.5000 	 1.3000 	 4.8373 	 21.1470 	 2.3968 	 31.3462 	 2.7216 	 39.8831 	 45.3655 	 8.5369 	 4.3000
  0.5000 	 1.4000 	 4.9633 	 20.8740 	 2.2611 	 34.4180 	 2.6418 	 42.0231 	 36.7614 	 7.6051 	 4.3000
  0.5000 	 1.0000 	 4.2553 	 22.8292 	 3.0133 	 22.6734 	 3.1461 	 31.6530 	 70.1623 	 8.9796 	 4.4000
  0.5000 	 1.1000 	 4.4684 	 22.2709 	 2.7893 	 25.4011 	 2.9906 	 34.4902 	 61.7934 	 9.0891 	 4.4000
  0.5000 	 1.2000 	 4.6461 	 21.8357 	 2.6012 	 28.1730 	 2.8667 	 37.0717 	 53.5855 	 8.8987 	 4.4000
  0.5000 	 1.3000 	 4.7964 	 21.4867 	 2.4408 	 31.0503 	 2.7664 	 39.4240 	 45.3082 	 8.3737 	 4.4000
  0.5000 	 1.4000 	 4.9252 	 21.2005 	 2.3022 	 34.1294 	 2.6842 	 41.5712 	 36.6101 	 7.4418 	 4.4000
  0.5000 	 1.0000 	 4.2020 	 23.2387 	 3.0691 	 22.3667 	 3.2016 	 31.1875 	 70.2635 	 8.8208 	 4.5000
  0.5000 	 1.1000 	 4.4200 	 22.6505 	 2.8404 	 25.0985 	 3.0418 	 34.0279 	 61.8534 	 8.9294 	 4.5000
  0.5000 	 1.2000 	 4.6016 	 22.1931 	 2.6483 	 27.8741 	 2.9143 	 36.6140 	 53.5940 	 8.7399 	 4.5000
  0.5000 	 1.3000 	 4.7554 	 21.8270 	 2.4847 	 30.7558 	 2.8112 	 38.9723 	 45.2502 	 8.2165 	 4.5000
  0.5000 	 1.4000 	 4.8871 	 21.5272 	 2.3433 	 33.8418 	 2.7265 	 41.1264 	 36.4593 	 7.2846 	 4.5000
  0.6000 	 1.0000 	 5.0546 	 16.9548 	 2.1067 	 25.0341 	 2.2996 	 39.8649 	 63.9927 	 14.8308 	 2.9000
  0.6000 	 1.1000 	 5.1951 	 16.7223 	 1.9519 	 27.5933 	 2.2077 	 42.6173 	 57.4902 	 15.0239 	 2.9000
  0.6000 	 1.2000 	 5.3122 	 16.5357 	 1.8211 	 30.1839 	 2.1351 	 45.0832 	 51.2996 	 14.8993 	 2.9000
  0.6000 	 1.3000 	 5.4112 	 16.3826 	 1.7089 	 32.8442 	 2.0768 	 47.2981 	 45.3101 	 14.4539 	 2.9000
  0.6000 	 1.0000 	 5.0013 	 17.3391 	 2.1649 	 24.7697 	 2.3571 	 39.2248 	 64.2476 	 14.4551 	 3.0000
  0.6000 	 1.1000 	 5.1467 	 17.0907 	 2.0055 	 27.3397 	 2.2610 	 41.9866 	 57.6936 	 14.6469 	 3.0000
  0.6000 	 1.2000 	 5.2678 	 16.8917 	 1.8710 	 29.9407 	 2.1851 	 44.4643 	 51.4435 	 14.5236 	 3.0000
  0.6000 	 1.3000 	 5.3702 	 16.7285 	 1.7556 	 32.6119 	 2.1242 	 46.6925 	 45.3853 	 14.0807 	 3.0000
  0.6000 	 1.0000 	 4.9480 	 17.7235 	 2.2229 	 24.5020 	 2.4143 	 38.6012 	 64.4876 	 14.0992 	 3.1000
  0.6000 	 1.1000 	 5.0982 	 17.4584 	 2.0589 	 27.0820 	 2.3142 	 41.3716 	 57.8838 	 14.2896 	 3.1000
  0.6000 	 1.2000 	 5.2234 	 17.2464 	 1.9205 	 29.6928 	 2.2350 	 43.8603 	 51.5759 	 14.1675 	 3.1000
  0.6000 	 1.3000 	 5.3293 	 17.0729 	 1.8019 	 32.3740 	 2.1714 	 46.1010 	 45.4502 	 13.7270 	 3.1000
  0.6000 	 1.0000 	 4.8947 	 18.1080 	 2.2806 	 24.2317 	 2.4714 	 37.9932 	 64.7141 	 13.7615 	 3.2000
  0.6000 	 1.1000 	 5.0498 	 17.8256 	 2.1120 	 26.8210 	 2.3671 	 40.7716 	 58.0621 	 13.9505 	 3.2000
  0.6000 	 1.2000 	 5.1789 	 17.6000 	 1.9698 	 29.4410 	 2.2846 	 43.2704 	 51.6978 	 13.8295 	 3.2000
  0.6000 	 1.3000 	 5.2883 	 17.4158 	 1.8480 	 32.1316 	 2.2183 	 45.5229 	 45.5062 	 13.3912 	 3.2000
  0.6000 	 1.4000 	 5.3820 	 17.2623 	 1.7423 	 34.9448 	 2.1642 	 47.5583 	 39.3538 	 12.6135 	 3.2000
  0.6000 	 1.0000 	 4.8414 	 18.4930 	 2.3381 	 23.9594 	 2.5283 	 37.3999 	 64.9282 	 13.4406 	 3.3000
  0.6000 	 1.1000 	 5.0013 	 18.1925 	 2.1649 	 26.5574 	 2.4199 	 40.1856 	 58.2294 	 13.6282 	 3.3000
  0.6000 	 1.2000 	 5.1345 	 17.9529 	 2.0189 	 29.1858 	 2.3340 	 42.6940 	 51.8102 	 13.5082 	 3.3000
  0.6000 	 1.3000 	 5.2473 	 17.7574 	 1.8939 	 31.8854 	 2.2649 	 44.9575 	 45.5541 	 13.0721 	 3.3000
  0.6000 	 1.4000 	 5.3439 	 17.5949 	 1.7854 	 34.7088 	 2.2086 	 47.0049 	 39.3239 	 12.2961 	 3.3000
  0.6000 	 1.0000 	 4.7882 	 18.8787 	 2.3955 	 23.6855 	 2.5851 	 36.8206 	 65.1310 	 13.1351 	 3.4000
  0.6000 	 1.1000 	 4.9529 	 18.5593 	 2.2176 	 26.2916 	 2.4725 	 39.6129 	 58.3869 	 13.3213 	 3.4000
  0.6000 	 1.2000 	 5.0901 	 18.3052 	 2.0678 	 28.9280 	 2.3832 	 42.1302 	 51.9142 	 13.2022 	 3.4000
  0.6000 	 1.3000 	 5.2063 	 18.0981 	 1.9395 	 31.6359 	 2.3114 	 44.4041 	 45.5948 	 12.7683 	 3.4000
  0.6000 	 1.4000 	 5.3058 	 17.9261 	 1.8283 	 34.4690 	 2.2527 	 46.4629 	 39.2880 	 11.9939 	 3.4000
  0.6000 	 1.0000 	 4.7349 	 19.2654 	 2.4526 	 23.4105 	 2.6417 	 36.2545 	 65.3232 	 12.8440 	 3.5000
  0.6000 	 1.1000 	 4.9044 	 18.9264 	 2.2701 	 26.0241 	 2.5249 	 39.0529 	 58.5352 	 13.0287 	 3.5000
  0.6000 	 1.2000 	 5.0457 	 18.6571 	 2.1164 	 28.6679 	 2.4322 	 41.5785 	 52.0104 	 12.9106 	 3.5000
  0.6000 	 1.3000 	 5.1653 	 18.4380 	 1.9849 	 31.3836 	 2.3576 	 43.8623 	 45.6291 	 12.4786 	 3.5000
  0.6000 	 1.4000 	 5.2678 	 18.2562 	 1.8710 	 34.2260 	 2.2967 	 45.9319 	 39.2467 	 11.7059 	 3.5000
  0.6000 	 1.0000 	 4.6816 	 19.6534 	 2.5096 	 23.1346 	 2.6982 	 35.7009 	 65.5059 	 12.5663 	 3.6000
  0.6000 	 1.1000 	 4.8560 	 19.2938 	 2.3225 	 25.7554 	 2.5771 	 38.5049 	 58.6752 	 12.7495 	 3.6000
  0.6000 	 1.2000 	 5.0013 	 19.0087 	 2.1649 	 28.4061 	 2.4811 	 41.0383 	 52.0996 	 12.6322 	 3.6000
  0.6000 	 1.3000 	 5.1243 	 18.7772 	 2.0302 	 31.1292 	 2.4037 	 43.3314 	 45.6576 	 12.2022 	 3.6000
  0.6000 	 1.4000 	 5.2297 	 18.5853 	 1.9134 	 33.9803 	 2.3405 	 45.4113 	 39.2007 	 11.4311 	 3.6000
  0.6000 	 1.0000 	 4.6283 	 20.0428 	 2.5664 	 22.8583 	 2.7546 	 35.1591 	 65.6796 	 12.3008 	 3.7000
  0.6000 	 1.1000 	 4.8075 	 19.6618 	 2.3746 	 25.4858 	 2.6292 	 37.9684 	 58.8075 	 12.4826 	 3.7000
  0.6000 	 1.2000 	 4.9569 	 19.3604 	 2.2132 	 28.1430 	 2.5298 	 40.5091 	 52.1823 	 12.3661 	 3.7000
  0.6000 	 1.3000 	 5.0833 	 19.1159 	 2.0753 	 30.8729 	 2.4496 	 42.8109 	 45.6809 	 11.9381 	 3.7000
  0.6000 	 1.4000 	 5.1916 	 18.9136 	 1.9558 	 33.7323 	 2.3840 	 44.9007 	 39.1506 	 11.1684 	 3.7000
  0.6000 	 1.0000 	 4.5750 	 20.4339 	 2.6230 	 22.5817 	 2.8108 	 34.6286 	 65.8450 	 12.0470 	 3.8000
  0.6000 	 1.1000 	 4.7591 	 20.0306 	 2.4266 	 25.2154 	 2.6812 	 37.4427 	 58.9327 	 12.2272 	 3.8000
  0.6000 	 1.2000 	 4.9125 	 19.7122 	 2.2614 	 27.8787 	 2.5783 	 39.9902 	 52.2592 	 12.1115 	 3.8000
  0.6000 	 1.3000 	 5.0423 	 19.4543 	 2.1202 	 30.6151 	 2.4953 	 42.3005 	 45.6995 	 11.6854 	 3.8000
  0.6000 	 1.4000 	 5.1536 	 19.2411 	 1.9979 	 33.4824 	 2.4274 	 44.3996 	 39.0969 	 10.9172 	 3.8000
  0.6000 	 1.0000 	 4.5217 	 20.8269 	 2.6796 	 22.3050 	 2.8669 	 34.1088 	 66.0027 	 11.8038 	 3.9000
  0.6000 	 1.1000 	 4.7106 	 20.4004 	 2.4785 	 24.9447 	 2.7331 	 36.9274 	 59.0513 	 11.9826 	 3.9000
  0.6000 	 1.2000 	 4.8681 	 20.0643 	 2.3094 	 27.6137 	 2.6267 	 39.4814 	 52.3307 	 11.8677 	 3.9000
  0.6000 	 1.3000 	 5.0013 	 19.7926 	 2.1649 	 30.3562 	 2.5408 	 41.7995 	 45.7139 	 11.4434 	 3.9000
  0.6000 	 1.4000 	 5.1155 	 19.5682 	 2.0399 	 33.2309 	 2.4706 	 43.9075 	 39.0400 	 10.6767 	 3.9000
  0.6000 	 1.0000 	 4.4684 	 21.2221 	 2.7360 	 22.0284 	 2.9229 	 33.5992 	 66.1533 	 11.5708 	 4.0000
  0.6000 	 1.1000 	 4.6622 	 20.7714 	 2.5302 	 24.6738 	 2.7848 	 36.4219 	 59.1639 	 11.7481 	 4.0000
  0.6000 	 1.2000 	 4.8237 	 20.4170 	 2.3573 	 27.3482 	 2.6749 	 38.9820 	 52.3972 	 11.6339 	 4.0000
  0.6000 	 1.3000 	 4.9603 	 20.1308 	 2.2095 	 30.0963 	 2.5862 	 41.3077 	 45.7245 	 11.2114 	 4.0000
  0.6000 	 1.4000 	 5.0774 	 19.8949 	 2.0817 	 32.9781 	 2.5136 	 43.4242 	 38.9804 	 10.4461 	 4.0000
  0.6000 	 1.0000 	 4.4151 	 21.6197 	 2.7923 	 21.7521 	 2.9789 	 33.0992 	 66.2971 	 11.3472 	 4.1000
  0.6000 	 1.1000 	 4.6138 	 21.1438 	 2.5819 	 24.4029 	 2.8364 	 35.9259 	 59.2709 	 11.5230 	 4.1000
  0.6000 	 1.2000 	 4.7793 	 20.7703 	 2.4050 	 27.0823 	 2.7231 	 38.4918 	 52.4593 	 11.4095 	 4.1000
  0.6000 	 1.3000 	 4.9193 	 20.4692 	 2.2540 	 29.8358 	 2.6315 	 40.8246 	 45.7317 	 10.9888 	 4.1000
  0.6000 	 1.4000 	 5.0394 	 20.2214 	 2.1234 	 32.7243 	 2.5565 	 42.9493 	 38.9183 	 10.2250 	 4.1000
  0.6000 	 1.0000 	 4.3618 	 22.0200 	 2.8484 	 21.4761 	 3.0347 	 32.6085 	 66.4348 	 11.1324 	 4.2000
  0.6000 	 1.1000 	 4.5653 	 21.5177 	 2.6333 	 24.1321 	 2.8879 	 35.4389 	 59.3726 	 11.3068 	 4.2000
  0.6000 	 1.2000 	 4.7349 	 21.1244 	 2.4526 	 26.8163 	 2.7710 	 38.0102 	 52.5172 	 11.1939 	 4.2000
  0.6000 	 1.3000 	 4.8783 	 20.8079 	 2.2983 	 29.5749 	 2.6766 	 40.3498 	 45.7357 	 10.7750 	 4.2000
  0.6000 	 1.4000 	 5.0013 	 20.5477 	 2.1649 	 32.4697 	 2.5992 	 42.4823 	 38.8541 	 10.0126 	 4.2000
  0.6000 	 1.0000 	 4.3086 	 22.4230 	 2.9045 	 21.2006 	 3.0904 	 32.1266 	 66.5666 	 10.9260 	 4.3000
  0.6000 	 1.1000 	 4.5169 	 21.8933 	 2.6847 	 23.8616 	 2.9393 	 34.9605 	 59.4695 	 11.0989 	 4.3000
  0.6000 	 1.2000 	 4.6905 	 21.4795 	 2.5001 	 26.5503 	 2.8189 	 37.5370 	 52.5712 	 10.9866 	 4.3000
  0.6000 	 1.3000 	 4.8373 	 21.1470 	 2.3425 	 29.3136 	 2.7216 	 39.8831 	 45.7369 	 10.5694 	 4.3000
  0.6000 	 1.4000 	 4.9633 	 20.8740 	 2.2063 	 32.2145 	 2.6418 	 42.0231 	 38.7880 	 9.8086 	 4.3000
  0.6000 	 1.0000 	 4.2553 	 22.8292 	 2.9604 	 20.9257 	 3.1461 	 31.6530 	 66.6930 	 10.7273 	 4.4000
  0.6000 	 1.1000 	 4.4684 	 22.2709 	 2.7360 	 23.5914 	 2.9906 	 34.4902 	 59.5618 	 10.8988 	 4.4000
  0.6000 	 1.2000 	 4.6461 	 21.8357 	 2.5475 	 26.2845 	 2.8667 	 37.0717 	 52.6217 	 10.7872 	 4.4000
  0.6000 	 1.3000 	 4.7964 	 21.4867 	 2.3866 	 29.0523 	 2.7664 	 39.4240 	 45.7356 	 10.3717 	 4.4000
  0.6000 	 1.4000 	 4.9252 	 21.2005 	 2.2476 	 31.9589 	 2.6842 	 41.5712 	 38.7203 	 9.6123 	 4.4000
  0.6000 	 1.0000 	 4.2020 	 23.2387 	 3.0163 	 20.6514 	 3.2016 	 31.1875 	 66.8142 	 10.5361 	 4.5000
  0.6000 	 1.1000 	 4.4200 	 22.6505 	 2.7871 	 23.3217 	 3.0418 	 34.0279 	 59.6500 	 10.7062 	 4.5000
  0.6000 	 1.2000 	 4.6016 	 22.1931 	 2.5947 	 26.0189 	 2.9143 	 36.6140 	 52.6689 	 10.5951 	 4.5000
  0.6000 	 1.3000 	 4.7554 	 21.8270 	 2.4306 	 28.7910 	 2.8112 	 38.9723 	 45.7320 	 10.1814 	 4.5000
  0.6000 	 1.4000 	 4.8871 	 21.5272 	 2.2888 	 31.7030 	 2.7265 	 41.1264 	 38.6513 	 9.4234 	 4.5000
  0.6000 	 1.5000 	 5.0013 	 21.2771 	 2.1649 	 34.8632 	 2.6563 	 43.0974 	 31.1155 	 8.2342 	 4.5000
  0.7000 	 1.0000 	 5.0546 	 16.9548 	 2.0443 	 22.5758 	 2.2996 	 39.8649 	 60.2197 	 17.2891 	 2.9000
  0.7000 	 1.1000 	 5.1951 	 16.7223 	 1.8886 	 25.0654 	 2.2077 	 42.6173 	 54.4536 	 17.5518 	 2.9000
  0.7000 	 1.2000 	 5.3122 	 16.5357 	 1.7569 	 27.5885 	 2.1351 	 45.0832 	 48.9838 	 17.4947 	 2.9000
  0.7000 	 1.3000 	 5.4112 	 16.3826 	 1.6438 	 30.1795 	 2.0768 	 47.2981 	 43.7264 	 17.1187 	 2.9000
  0.7000 	 1.4000 	 5.4961 	 16.2547 	 1.5453 	 32.8799 	 2.0294 	 49.2934 	 38.5920 	 16.4135 	 2.9000
  0.7000 	 1.0000 	 5.0013 	 17.3391 	 2.1028 	 22.3796 	 2.3571 	 39.2248 	 60.5189 	 16.8451 	 3.0000
  0.7000 	 1.1000 	 5.1467 	 17.0907 	 1.9426 	 24.8808 	 2.2610 	 41.9866 	 54.7121 	 17.1057 	 3.0000
  0.7000 	 1.2000 	 5.2678 	 16.8917 	 1.8071 	 27.4144 	 2.1851 	 44.4643 	 49.1953 	 17.0499 	 3.0000
  0.7000 	 1.3000 	 5.3702 	 16.7285 	 1.6908 	 30.0149 	 2.1242 	 46.6925 	 43.8842 	 16.6776 	 3.0000
  0.7000 	 1.4000 	 5.4581 	 16.5924 	 1.5896 	 32.7244 	 2.0746 	 48.7019 	 38.6882 	 15.9775 	 3.0000
  0.7000 	 1.0000 	 4.9480 	 17.7235 	 2.1610 	 22.1763 	 2.4143 	 38.6012 	 60.8004 	 16.4249 	 3.1000
  0.7000 	 1.1000 	 5.0982 	 17.4584 	 1.9962 	 24.6883 	 2.3142 	 41.3716 	 54.9542 	 16.6834 	 3.1000
  0.7000 	 1.2000 	 5.2234 	 17.2464 	 1.8570 	 27.2316 	 2.2350 	 43.8603 	 49.3914 	 16.6287 	 3.1000
  0.7000 	 1.3000 	 5.3293 	 17.0729 	 1.7376 	 29.8412 	 2.1714 	 46.1010 	 44.0276 	 16.2598 	 3.1000
  0.7000 	 1.4000 	 5.4200 	 16.9282 	 1.6337 	 32.5594 	 2.1195 	 48.1237 	 38.7707 	 15.5643 	 3.1000
  0.7000 	 1.0000 	 4.8947 	 18.1080 	 2.2190 	 21.9668 	 2.4714 	 37.9932 	 61.0660 	 16.0264 	 3.2000
  0.7000 	 1.1000 	 5.0498 	 17.8256 	 2.0496 	 24.4888 	 2.3671 	 40.7716 	 55.1813 	 16.2828 	 3.2000
  0.7000 	 1.2000 	 5.1789 	 17.6000 	 1.9066 	 27.0413 	 2.2846 	 43.2704 	 49.5736 	 16.2291 	 3.2000
  0.7000 	 1.3000 	 5.2883 	 17.4158 	 1.7840 	 29.6595 	 2.2183 	 45.5229 	 44.1580 	 15.8634 	 3.2000
  0.7000 	 1.4000 	 5.3820 	 17.2623 	 1.6774 	 32.3861 	 2.1642 	 47.5583 	 38.8410 	 15.1721 	 3.2000
  0.7000 	 1.0000 	 4.8414 	 18.4930 	 2.2767 	 21.7519 	 2.5283 	 37.3999 	 61.3168 	 15.6480 	 3.3000
  0.7000 	 1.1000 	 5.0013 	 18.1925 	 2.1028 	 24.2834 	 2.4199 	 40.1856 	 55.3949 	 15.9022 	 3.3000
  0.7000 	 1.2000 	 5.1345 	 17.9529 	 1.9560 	 26.8445 	 2.3340 	 42.6940 	 49.7433 	 15.8495 	 3.3000
  0.7000 	 1.3000 	 5.2473 	 17.7574 	 1.8302 	 29.4708 	 2.2649 	 44.9575 	 44.2769 	 15.4867 	 3.3000
  0.7000 	 1.4000 	 5.3439 	 17.5949 	 1.7209 	 32.2055 	 2.2086 	 47.0049 	 38.9004 	 14.7994 	 3.3000
  0.7000 	 1.0000 	 4.7882 	 18.8787 	 2.3343 	 21.5325 	 2.5851 	 36.8206 	 61.5542 	 15.2881 	 3.4000
  0.7000 	 1.1000 	 4.9529 	 18.5593 	 2.1557 	 24.0728 	 2.4725 	 39.6129 	 55.5960 	 15.5401 	 3.4000
  0.7000 	 1.2000 	 5.0901 	 18.3052 	 2.0052 	 26.6420 	 2.3832 	 42.1302 	 49.9015 	 15.4882 	 3.4000
  0.7000 	 1.3000 	 5.2063 	 18.0981 	 1.8761 	 29.2759 	 2.3114 	 44.4041 	 44.3852 	 15.1282 	 3.4000
  0.7000 	 1.4000 	 5.3058 	 17.9261 	 1.7641 	 32.0183 	 2.2527 	 46.4629 	 38.9502 	 14.4446 	 3.4000
  0.7000 	 1.5000 	 5.3921 	 17.7810 	 1.6658 	 34.9300 	 2.2043 	 48.3316 	 33.4733 	 13.4016 	 3.4000
  0.7000 	 1.0000 	 4.7349 	 19.2654 	 2.3916 	 21.3092 	 2.6417 	 36.2545 	 61.7792 	 14.9453 	 3.5000
  0.7000 	 1.1000 	 4.9044 	 18.9264 	 2.2085 	 23.8578 	 2.5249 	 39.0529 	 55.7857 	 15.1951 	 3.5000
  0.7000 	 1.2000 	 5.0457 	 18.6571 	 2.0541 	 26.4345 	 2.4322 	 41.5785 	 50.0494 	 15.1440 	 3.5000
  0.7000 	 1.3000 	 5.1653 	 18.4380 	 1.9219 	 29.0757 	 2.3576 	 43.8623 	 44.4841 	 14.7866 	 3.5000
  0.7000 	 1.4000 	 5.2678 	 18.2562 	 1.8071 	 31.8255 	 2.2967 	 45.9319 	 38.9912 	 14.1064 	 3.5000
  0.7000 	 1.5000 	 5.3566 	 18.1029 	 1.7064 	 34.7458 	 2.2464 	 47.8120 	 33.4438 	 13.0662 	 3.5000
  0.7000 	 1.0000 	 4.6816 	 19.6534 	 2.4488 	 21.0825 	 2.6982 	 35.7009 	 61.9928 	 14.6184 	 3.6000
  0.7000 	 1.1000 	 4.8560 	 19.2938 	 2.2610 	 23.6389 	 2.5771 	 38.5049 	 55.9650 	 14.8660 	 3.6000
  0.7000 	 1.2000 	 5.0013 	 19.0087 	 2.1028 	 26.2228 	 2.4811 	 41.0383 	 50.1878 	 14.8155 	 3.6000
  0.7000 	 1.3000 	 5.1243 	 18.7772 	 1.9674 	 28.8707 	 2.4037 	 43.3314 	 44.5743 	 14.4607 	 3.6000
  0.7000 	 1.4000 	 5.2297 	 18.5853 	 1.8499 	 31.6276 	 2.3405 	 45.4113 	 39.0244 	 13.7837 	 3.6000
  0.7000 	 1.5000 	 5.3211 	 18.4237 	 1.7469 	 34.5564 	 2.2882 	 47.3023 	 33.4070 	 12.7459 	 3.6000
  0.7000 	 1.0000 	 4.6283 	 20.0428 	 2.5058 	 20.8529 	 2.7546 	 35.1591 	 62.1959 	 14.3062 	 3.7000
  0.7000 	 1.1000 	 4.8075 	 19.6618 	 2.3134 	 23.4167 	 2.6292 	 37.9684 	 56.1346 	 14.5517 	 3.7000
  0.7000 	 1.2000 	 4.9569 	 19.3604 	 2.1513 	 26.0073 	 2.5298 	 40.5091 	 50.3175 	 14.5017 	 3.7000
  0.7000 	 1.3000 	 5.0833 	 19.1159 	 2.0127 	 28.6617 	 2.4496 	 42.8109 	 44.6568 	 14.1493 	 3.7000
  0.7000 	 1.4000 	 5.1916 	 18.9136 	 1.8925 	 31.4253 	 2.3840 	 44.9007 	 39.0505 	 13.4754 	 3.7000
  0.7000 	 1.5000 	 5.2855 	 18.7433 	 1.7871 	 34.3623 	 2.3298 	 46.8021 	 33.3637 	 12.4399 	 3.7000
  0.7000 	 1.0000 	 4.5750 	 20.4339 	 2.5626 	 20.6209 	 2.8108 	 34.6286 	 62.3891 	 14.0077 	 3.8000
  0.7000 	 1.1000 	 4.7591 	 20.0306 	 2.3656 	 23.1916 	 2.6812 	 37.4427 	 56.2954 	 14.2510 	 3.8000
  0.7000 	 1.2000 	 4.9125 	 19.7122 	 2.1997 	 25.7886 	 2.5783 	 39.9902 	 50.4392 	 14.2016 	 3.8000
  0.7000 	 1.3000 	 5.0423 	 19.4543 	 2.0578 	 28.4490 	 2.4953 	 42.3005 	 44.7322 	 13.8514 	 3.8000
  0.7000 	 1.4000 	 5.1536 	 19.2411 	 1.9349 	 31.2190 	 2.4274 	 44.3996 	 39.0704 	 13.1805 	 3.8000
  0.7000 	 1.5000 	 5.2500 	 19.0620 	 1.8271 	 34.1640 	 2.3712 	 46.3110 	 33.3145 	 12.1470 	 3.8000
  0.7000 	 1.0000 	 4.5217 	 20.8269 	 2.6193 	 20.3867 	 2.8669 	 34.1088 	 62.5733 	 13.7221 	 3.9000
  0.7000 	 1.1000 	 4.7106 	 20.4004 	 2.4176 	 22.9641 	 2.7331 	 36.9274 	 56.4480 	 13.9632 	 3.9000
  0.7000 	 1.2000 	 4.8681 	 20.0643 	 2.2479 	 25.5671 	 2.6267 	 39.4814 	 50.5536 	 13.9143 	 3.9000
  0.7000 	 1.3000 	 5.0013 	 19.7926 	 2.1028 	 28.2333 	 2.5408 	 41.7995 	 44.8011 	 13.5662 	 3.9000
  0.7000 	 1.4000 	 5.1155 	 19.5682 	 1.9771 	 31.0094 	 2.4706 	 43.9075 	 39.0846 	 12.8982 	 3.9000
  0.7000 	 1.5000 	 5.2145 	 19.3798 	 1.8670 	 33.9620 	 2.4124 	 45.8285 	 33.2602 	 11.8665 	 3.9000
  0.7000 	 1.0000 	 4.4684 	 21.2221 	 2.6758 	 20.1508 	 2.9229 	 33.5992 	 62.7491 	 13.4484 	 4.0000
  0.7000 	 1.1000 	 4.6622 	 20.7714 	 2.4695 	 22.7346 	 2.7848 	 36.4219 	 56.5930 	 13.6874 	 4.0000
  0.7000 	 1.2000 	 4.8237 	 20.4170 	 2.2959 	 25.3432 	 2.6749 	 38.9820 	 50.6613 	 13.6389 	 4.0000
  0.7000 	 1.3000 	 4.9603 	 20.1308 	 2.1476 	 28.0148 	 2.5862 	 41.3077 	 44.8641 	 13.2929 	 4.0000
  0.7000 	 1.4000 	 5.0774 	 19.8949 	 2.0192 	 30.7967 	 2.5136 	 43.4242 	 39.0936 	 12.6275 	 4.0000
  0.7000 	 1.5000 	 5.1789 	 19.6970 	 1.9066 	 33.7568 	 2.4534 	 45.3544 	 33.2013 	 11.5977 	 4.0000
  0.7000 	 1.0000 	 4.4151 	 21.6197 	 2.7322 	 19.9134 	 2.9789 	 33.0992 	 62.9170 	 13.1858 	 4.1000
  0.7000 	 1.1000 	 4.6138 	 21.1438 	 2.5213 	 22.5032 	 2.8364 	 35.9259 	 56.7309 	 13.4227 	 4.1000
  0.7000 	 1.2000 	 4.7793 	 20.7703 	 2.3439 	 25.1171 	 2.7231 	 38.4918 	 50.7627 	 13.3746 	 4.1000
  0.7000 	 1.3000 	 4.9193 	 20.4692 	 2.1923 	 27.7939 	 2.6315 	 40.8246 	 44.9218 	 13.0307 	 4.1000
  0.7000 	 1.4000 	 5.0394 	 20.2214 	 2.0611 	 30.5814 	 2.5565 	 42.9493 	 39.0980 	 12.3679 	 4.1000
  0.7000 	 1.5000 	 5.1434 	 20.0137 	 1.9462 	 33.5486 	 2.4943 	 44.8883 	 33.1383 	 11.3397 	 4.1000
  0.7000 	 1.0000 	 4.3618 	 22.0200 	 2.7885 	 19.6747 	 3.0347 	 32.6085 	 63.0775 	 12.9338 	 4.2000
  0.7000 	 1.1000 	 4.5653 	 21.5177 	 2.5729 	 22.2703 	 2.8879 	 35.4389 	 56.8623 	 13.1686 	 4.2000
  0.7000 	 1.2000 	 4.7349 	 21.1244 	 2.3916 	 24.8893 	 2.7710 	 38.0102 	 50.8584 	 13.1209 	 4.2000
  0.7000 	 1.3000 	 4.8783 	 20.8079 	 2.2368 	 27.5709 	 2.6766 	 40.3498 	 44.9745 	 12.7789 	 4.2000
  0.7000 	 1.4000 	 5.0013 	 20.5477 	 2.1028 	 30.3637 	 2.5992 	 42.4823 	 39.0981 	 12.1186 	 4.2000
  0.7000 	 1.5000 	 5.1079 	 20.3299 	 1.9855 	 33.3379 	 2.5350 	 44.4298 	 33.0717 	 11.0919 	 4.2000
  0.7000 	 1.0000 	 4.3086 	 22.4230 	 2.8447 	 19.4350 	 3.0904 	 32.1266 	 63.2313 	 12.6916 	 4.3000
  0.7000 	 1.1000 	 4.5169 	 21.8933 	 2.6244 	 22.0361 	 2.9393 	 34.9605 	 56.9876 	 12.9244 	 4.3000
  0.7000 	 1.2000 	 4.6905 	 21.4795 	 2.4393 	 24.6600 	 2.8189 	 37.5370 	 50.9488 	 12.8769 	 4.3000
  0.7000 	 1.3000 	 4.8373 	 21.1470 	 2.2812 	 27.3462 	 2.7216 	 39.8831 	 45.0226 	 12.5368 	 4.3000
  0.7000 	 1.4000 	 4.9633 	 20.8740 	 2.1444 	 30.1440 	 2.6418 	 42.0231 	 39.0945 	 11.8791 	 4.3000
  0.7000 	 1.5000 	 5.0724 	 20.6458 	 2.0248 	 33.1250 	 2.5756 	 43.9787 	 33.0017 	 10.8537 	 4.3000
  0.7000 	 1.0000 	 4.2553 	 22.8292 	 2.9007 	 19.1943 	 3.1461 	 31.6530 	 63.3786 	 12.4587 	 4.4000
  0.7000 	 1.1000 	 4.4684 	 22.2709 	 2.6758 	 21.8008 	 2.9906 	 34.4902 	 57.1072 	 12.6894 	 4.4000
  0.7000 	 1.2000 	 4.6461 	 21.8357 	 2.4868 	 24.4294 	 2.8667 	 37.0717 	 51.0343 	 12.6423 	 4.4000
  0.7000 	 1.3000 	 4.7964 	 21.4867 	 2.3254 	 27.1200 	 2.7664 	 39.4240 	 45.0666 	 12.3040 	 4.4000
  0.7000 	 1.4000 	 4.9252 	 21.2005 	 2.1859 	 29.9226 	 2.6842 	 41.5712 	 39.0874 	 11.6486 	 4.4000
  0.7000 	 1.5000 	 5.0368 	 20.9615 	 2.0638 	 32.9100 	 2.6160 	 43.5347 	 32.9289 	 10.6246 	 4.4000
  0.7000 	 1.0000 	 4.2020 	 23.2387 	 2.9567 	 18.9529 	 3.2016 	 31.1875 	 63.5198 	 12.2346 	 4.5000
  0.7000 	 1.1000 	 4.4200 	 22.6505 	 2.7271 	 21.5647 	 3.0418 	 34.0279 	 57.2214 	 12.4632 	 4.5000
  0.7000 	 1.2000 	 4.6016 	 22.1931 	 2.5342 	 24.1977 	 2.9143 	 36.6140 	 51.1152 	 12.4164 	 4.5000
  0.7000 	 1.3000 	 4.7554 	 21.8270 	 2.3696 	 26.8924 	 2.8112 	 38.9723 	 45.1067 	 12.0799 	 4.5000
  0.7000 	 1.4000 	 4.8871 	 21.5272 	 2.2273 	 29.6996 	 2.7265 	 41.1264 	 39.0772 	 11.4268 	 4.5000
  0.7000 	 1.5000 	 5.0013 	 21.2771 	 2.1028 	 32.6933 	 2.6563 	 43.0974 	 32.8535 	 10.4041 	 4.5000
  0.8000 	 1.0000 	 5.0546 	 16.9548 	 1.9755 	 20.1058 	 2.2996 	 39.8649 	 56.5960 	 19.7590 	 2.9000
  0.8000 	 1.1000 	 5.1951 	 16.7223 	 1.8187 	 22.5245 	 2.2077 	 42.6173 	 51.3538 	 20.0928 	 2.9000
  0.8000 	 1.2000 	 5.3122 	 16.5357 	 1.6859 	 24.9877 	 2.1351 	 45.0832 	 46.3920 	 20.0955 	 2.9000
  0.8000 	 1.3000 	 5.4112 	 16.3826 	 1.5716 	 27.5286 	 2.0768 	 47.2981 	 41.6412 	 19.7696 	 2.9000
  0.8000 	 1.4000 	 5.4961 	 16.2547 	 1.4718 	 30.1866 	 2.0294 	 49.2934 	 37.0286 	 19.1068 	 2.9000
  0.8000 	 1.5000 	 5.5697 	 16.1462 	 1.3838 	 33.0135 	 1.9903 	 51.0962 	 32.4714 	 18.0827 	 2.9000
  0.8000 	 1.0000 	 5.0013 	 17.3391 	 2.0343 	 19.9812 	 2.3571 	 39.2248 	 56.9409 	 19.2436 	 3.0000
  0.8000 	 1.1000 	 5.1467 	 17.0907 	 1.8731 	 22.4123 	 2.2610 	 41.9866 	 51.6672 	 19.5742 	 3.0000
  0.8000 	 1.2000 	 5.2678 	 16.8917 	 1.7366 	 24.8859 	 2.1851 	 44.4643 	 46.6686 	 19.5783 	 3.0000
  0.8000 	 1.3000 	 5.3702 	 16.7285 	 1.6191 	 27.4350 	 2.1242 	 46.6925 	 41.8761 	 19.2575 	 3.0000
  0.8000 	 1.4000 	 5.4581 	 16.5924 	 1.5168 	 30.0988 	 2.0746 	 48.7019 	 37.2166 	 18.6031 	 3.0000
  0.8000 	 1.5000 	 5.5342 	 16.4771 	 1.4265 	 32.9291 	 2.0337 	 50.5192 	 32.6060 	 17.5901 	 3.0000
  0.8000 	 1.0000 	 4.9480 	 17.7235 	 2.0929 	 19.8450 	 2.4143 	 38.6012 	 57.2652 	 18.7562 	 3.1000
  0.8000 	 1.1000 	 5.0982 	 17.4584 	 1.9271 	 22.2879 	 2.3142 	 41.3716 	 51.9606 	 19.0837 	 3.1000
  0.8000 	 1.2000 	 5.2234 	 17.2464 	 1.7869 	 24.7713 	 2.2350 	 43.8603 	 46.9259 	 19.0890 	 3.1000
  0.8000 	 1.3000 	 5.3293 	 17.0729 	 1.6664 	 27.3282 	 2.1714 	 46.1010 	 42.0921 	 18.7728 	 3.1000
  0.8000 	 1.4000 	 5.4200 	 16.9282 	 1.5613 	 29.9979 	 2.1195 	 48.1237 	 37.3859 	 18.1259 	 3.1000
  0.8000 	 1.5000 	 5.4987 	 16.8058 	 1.4688 	 32.8320 	 2.0768 	 49.9548 	 32.7218 	 17.1228 	 3.1000
  0.8000 	 1.0000 	 4.8947 	 18.1080 	 2.1511 	 19.6988 	 2.4714 	 37.9932 	 57.5708 	 18.2944 	 3.2000
  0.8000 	 1.1000 	 5.0498 	 17.8256 	 1.9809 	 22.1527 	 2.3671 	 40.7716 	 52.2361 	 18.6189 	 3.2000
  0.8000 	 1.2000 	 5.1789 	 17.6000 	 1.8369 	 24.6453 	 2.2846 	 43.2704 	 47.1657 	 18.6251 	 3.2000
  0.8000 	 1.3000 	 5.2883 	 17.4158 	 1.7132 	 27.2097 	 2.2183 	 45.5229 	 42.2912 	 18.3132 	 3.2000
  0.8000 	 1.4000 	 5.3820 	 17.2623 	 1.6056 	 29.8851 	 2.1642 	 47.5583 	 37.5385 	 17.6731 	 3.2000
  0.8000 	 1.5000 	 5.4632 	 17.1326 	 1.5108 	 32.7236 	 2.1195 	 49.4025 	 32.8208 	 16.6789 	 3.2000
  0.8000 	 1.0000 	 4.8414 	 18.4930 	 2.2092 	 19.5437 	 2.5283 	 37.3999 	 57.8593 	 17.8563 	 3.3000
  0.8000 	 1.1000 	 5.0013 	 18.1925 	 2.0343 	 22.0079 	 2.4199 	 40.1856 	 52.4950 	 18.1777 	 3.3000
  0.8000 	 1.2000 	 5.1345 	 17.9529 	 1.8866 	 24.5092 	 2.3340 	 42.6940 	 47.3898 	 18.1847 	 3.3000
  0.8000 	 1.3000 	 5.2473 	 17.7574 	 1.7598 	 27.0808 	 2.2649 	 44.9575 	 42.4750 	 17.8767 	 3.3000
  0.8000 	 1.4000 	 5.3439 	 17.5949 	 1.6495 	 29.7620 	 2.2086 	 47.0049 	 37.6762 	 17.2429 	 3.3000
  0.8000 	 1.5000 	 5.4276 	 17.4576 	 1.5525 	 32.6049 	 2.1620 	 48.8616 	 32.9049 	 16.2567 	 3.3000
  0.8000 	 1.0000 	 4.7882 	 18.8787 	 2.2669 	 19.3807 	 2.5851 	 36.8206 	 58.1321 	 17.4399 	 3.4000
  0.8000 	 1.1000 	 4.9529 	 18.5593 	 2.0876 	 21.8547 	 2.4725 	 39.6129 	 52.7390 	 17.7582 	 3.4000
  0.8000 	 1.2000 	 5.0901 	 18.3052 	 1.9361 	 24.3643 	 2.3832 	 42.1302 	 47.5995 	 17.7659 	 3.4000
  0.8000 	 1.3000 	 5.2063 	 18.0981 	 1.8062 	 26.9426 	 2.3114 	 44.4041 	 42.6450 	 17.4615 	 3.4000
  0.8000 	 1.4000 	 5.3058 	 17.9261 	 1.6932 	 29.6294 	 2.2527 	 46.4629 	 37.8005 	 16.8335 	 3.4000
  0.8000 	 1.5000 	 5.3921 	 17.7810 	 1.5938 	 32.4771 	 2.2043 	 48.3316 	 32.9756 	 15.8545 	 3.4000
  0.8000 	 1.0000 	 4.7349 	 19.2654 	 2.3245 	 19.2109 	 2.6417 	 36.2545 	 58.3905 	 17.0436 	 3.5000
  0.8000 	 1.1000 	 4.9044 	 18.9264 	 2.1406 	 21.6940 	 2.5249 	 39.0529 	 52.9693 	 17.3589 	 3.5000
  0.8000 	 1.2000 	 5.0457 	 18.6571 	 1.9853 	 24.2114 	 2.4322 	 41.5785 	 47.7961 	 17.3671 	 3.5000
  0.8000 	 1.3000 	 5.1653 	 18.4380 	 1.8522 	 26.7963 	 2.3576 	 43.8623 	 42.8024 	 17.0660 	 3.5000
  0.8000 	 1.4000 	 5.2678 	 18.2562 	 1.7366 	 29.4885 	 2.2967 	 45.9319 	 37.9126 	 16.4434 	 3.5000
  0.8000 	 1.5000 	 5.3566 	 18.1029 	 1.6349 	 32.3410 	 2.2464 	 47.8120 	 33.0344 	 15.4710 	 3.5000
  0.8000 	 1.0000 	 4.6816 	 19.6534 	 2.3819 	 19.0350 	 2.6982 	 35.7009 	 58.6356 	 16.6659 	 3.6000
  0.8000 	 1.1000 	 4.8560 	 19.2938 	 2.1934 	 21.5268 	 2.5771 	 38.5049 	 53.1869 	 16.9781 	 3.6000
  0.8000 	 1.2000 	 5.0013 	 19.0087 	 2.0343 	 24.0515 	 2.4811 	 41.0383 	 47.9807 	 16.9868 	 3.6000
  0.8000 	 1.3000 	 5.1243 	 18.7772 	 1.8981 	 26.6426 	 2.4037 	 43.3314 	 42.9485 	 16.6888 	 3.6000
  0.8000 	 1.4000 	 5.2297 	 18.5853 	 1.7797 	 29.3402 	 2.3405 	 45.4113 	 38.0138 	 16.0712 	 3.6000
  0.8000 	 1.5000 	 5.3211 	 18.4237 	 1.6758 	 32.1975 	 2.2882 	 47.3023 	 33.0825 	 15.1048 	 3.6000
  0.8000 	 1.0000 	 4.6283 	 20.0428 	 2.4391 	 18.8537 	 2.7546 	 35.1591 	 58.8684 	 16.3054 	 3.7000
  0.8000 	 1.1000 	 4.8075 	 19.6618 	 2.2460 	 21.3537 	 2.6292 	 37.9684 	 53.3930 	 16.6147 	 3.7000
  0.8000 	 1.2000 	 4.9569 	 19.3604 	 2.0831 	 23.8853 	 2.5298 	 40.5091 	 48.1544 	 16.6238 	 3.7000
  0.8000 	 1.3000 	 5.0833 	 19.1159 	 1.9437 	 26.4824 	 2.4496 	 42.8109 	 43.0842 	 16.3286 	 3.7000
  0.8000 	 1.4000 	 5.1916 	 18.9136 	 1.8226 	 29.1851 	 2.3840 	 44.9007 	 38.1051 	 15.7156 	 3.7000
  0.8000 	 1.5000 	 5.2855 	 18.7433 	 1.7164 	 32.0473 	 2.3298 	 46.8021 	 33.1209 	 14.7548 	 3.7000
  0.8000 	 1.0000 	 4.5750 	 20.4339 	 2.4961 	 18.6676 	 2.8108 	 34.6286 	 59.0900 	 15.9610 	 3.8000
  0.8000 	 1.1000 	 4.7591 	 20.0306 	 2.2984 	 21.1753 	 2.6812 	 37.4427 	 53.5883 	 16.2673 	 3.8000
  0.8000 	 1.2000 	 4.9125 	 19.7122 	 2.1317 	 23.7136 	 2.5783 	 39.9902 	 48.3180 	 16.2767 	 3.8000
  0.8000 	 1.3000 	 5.0423 	 19.4543 	 1.9891 	 26.3163 	 2.4953 	 42.3005 	 43.2104 	 15.9842 	 3.8000
  0.8000 	 1.4000 	 5.1536 	 19.2411 	 1.8653 	 29.0240 	 2.4274 	 44.3996 	 38.1874 	 15.3756 	 3.8000
  0.8000 	 1.5000 	 5.2500 	 19.0620 	 1.7567 	 31.8911 	 2.3712 	 46.3110 	 33.1506 	 14.4199 	 3.8000
  0.8000 	 1.0000 	 4.5217 	 20.8269 	 2.5529 	 18.4772 	 2.8669 	 34.1088 	 59.3010 	 15.6316 	 3.9000
  0.8000 	 1.1000 	 4.7106 	 20.4004 	 2.3506 	 20.9924 	 2.7331 	 36.9274 	 53.7738 	 15.9350 	 3.9000
  0.8000 	 1.2000 	 4.8681 	 20.0643 	 2.1802 	 23.5369 	 2.6267 	 39.4814 	 48.4724 	 15.9445 	 3.9000
  0.8000 	 1.3000 	 5.0013 	 19.7926 	 2.0343 	 26.1450 	 2.5408 	 41.7995 	 43.3280 	 15.6546 	 3.9000
  0.8000 	 1.4000 	 5.1155 	 19.5682 	 1.9079 	 28.8574 	 2.4706 	 43.9075 	 38.2615 	 15.0501 	 3.9000
  0.8000 	 1.5000 	 5.2145 	 19.3798 	 1.7969 	 31.7294 	 2.4124 	 45.8285 	 33.1725 	 14.0992 	 3.9000
  0.8000 	 1.6000 	 5.3011 	 19.2194 	 1.6986 	 34.8453 	 2.3637 	 47.5831 	 27.9150 	 12.7378 	 3.9000
  0.8000 	 1.0000 	 4.4684 	 21.2221 	 2.6096 	 18.2831 	 2.9229 	 33.5992 	 59.5022 	 15.3161 	 4.0000
  0.8000 	 1.1000 	 4.6622 	 20.7714 	 2.4027 	 20.8053 	 2.7848 	 36.4219 	 53.9501 	 15.6166 	 4.0000
  0.8000 	 1.2000 	 4.8237 	 20.4170 	 2.2284 	 23.3558 	 2.6749 	 38.9820 	 48.6182 	 15.6263 	 4.0000
  0.8000 	 1.3000 	 4.9603 	 20.1308 	 2.0794 	 25.9689 	 2.5862 	 41.3077 	 43.4376 	 15.3387 	 4.0000
  0.8000 	 1.4000 	 5.0774 	 19.8949 	 1.9502 	 28.6861 	 2.5136 	 43.4242 	 38.3282 	 14.7382 	 4.0000
  0.8000 	 1.5000 	 5.1789 	 19.6970 	 1.8369 	 31.5627 	 2.4534 	 45.3544 	 33.1873 	 13.7917 	 4.0000
  0.8000 	 1.6000 	 5.2678 	 19.5286 	 1.7366 	 34.6850 	 2.4031 	 47.1185 	 27.8637 	 12.4335 	 4.0000
  0.8000 	 1.0000 	 4.4151 	 21.6197 	 2.6662 	 18.0855 	 2.9789 	 33.0992 	 59.6944 	 15.0137 	 4.1000
  0.8000 	 1.1000 	 4.6138 	 21.1438 	 2.4546 	 20.6146 	 2.8364 	 35.9259 	 54.1179 	 15.3113 	 4.1000
  0.8000 	 1.2000 	 4.7793 	 20.7703 	 2.2766 	 23.1707 	 2.7231 	 38.4918 	 48.7561 	 15.3211 	 4.1000
  0.8000 	 1.3000 	 4.9193 	 20.4692 	 2.1243 	 25.7888 	 2.6315 	 40.8246 	 43.5399 	 15.0358 	 4.1000
  0.8000 	 1.4000 	 5.0394 	 20.2214 	 1.9923 	 28.5103 	 2.5565 	 42.9493 	 38.3880 	 14.4390 	 4.1000
  0.8000 	 1.5000 	 5.1434 	 20.0137 	 1.8767 	 31.3917 	 2.4943 	 44.8883 	 33.1956 	 13.4966 	 4.1000
  0.8000 	 1.6000 	 5.2345 	 19.8371 	 1.7743 	 34.5203 	 2.4423 	 46.6616 	 27.8059 	 12.1412 	 4.1000
  0.8000 	 1.0000 	 4.3618 	 22.0200 	 2.7226 	 17.8850 	 3.0347 	 32.6085 	 59.8781 	 14.7235 	 4.2000
  0.8000 	 1.1000 	 4.5653 	 21.5177 	 2.5064 	 20.4205 	 2.8879 	 35.4389 	 54.2778 	 15.0183 	 4.2000
  0.8000 	 1.2000 	 4.7349 	 21.1244 	 2.3245 	 22.9821 	 2.7710 	 38.0102 	 48.8868 	 15.0281 	 4.2000
  0.8000 	 1.3000 	 4.8783 	 20.8079 	 2.1690 	 25.6048 	 2.6766 	 40.3498 	 43.6355 	 14.7450 	 4.2000
  0.8000 	 1.4000 	 5.0013 	 20.5477 	 2.0343 	 28.3306 	 2.5992 	 42.4823 	 38.4417 	 14.1517 	 4.2000
  0.8000 	 1.5000 	 5.1079 	 20.3299 	 1.9163 	 31.2166 	 2.5350 	 44.4298 	 33.1981 	 13.2132 	 4.2000
  0.8000 	 1.6000 	 5.2012 	 20.1449 	 1.8119 	 34.3517 	 2.4813 	 46.2120 	 27.7424 	 11.8603 	 4.2000
  0.8000 	 1.0000 	 4.3086 	 22.4230 	 2.7789 	 17.6818 	 3.0904 	 32.1266 	 60.0539 	 14.4448 	 4.3000
  0.8000 	 1.1000 	 4.5169 	 21.8933 	 2.5581 	 20.2236 	 2.9393 	 34.9605 	 54.4304 	 14.7369 	 4.3000
  0.8000 	 1.2000 	 4.6905 	 21.4795 	 2.3723 	 22.7903 	 2.8189 	 37.5370 	 49.0107 	 14.7466 	 4.3000
  0.8000 	 1.3000 	 4.8373 	 21.1470 	 2.2136 	 25.4175 	 2.7216 	 39.8831 	 43.7248 	 14.4656 	 4.3000
  0.8000 	 1.4000 	 4.9633 	 20.8740 	 2.0762 	 28.1474 	 2.6418 	 42.0231 	 38.4897 	 13.8756 	 4.3000
  0.8000 	 1.5000 	 5.0724 	 20.6458 	 1.9558 	 31.0378 	 2.5756 	 43.9787 	 33.1953 	 12.9409 	 4.3000
  0.8000 	 1.6000 	 5.1678 	 20.4521 	 1.8494 	 34.1795 	 2.5201 	 45.7694 	 27.6736 	 11.5900 	 4.3000
  0.8000 	 1.0000 	 4.2553 	 22.8292 	 2.8351 	 17.4761 	 3.1461 	 31.6530 	 60.2223 	 14.1769 	 4.4000
  0.8000 	 1.1000 	 4.4684 	 22.2709 	 2.6096 	 20.0240 	 2.9906 	 34.4902 	 54.5761 	 14.4662 	 4.4000
  0.8000 	 1.2000 	 4.6461 	 21.8357 	 2.4200 	 22.5958 	 2.8667 	 37.0717 	 49.1282 	 14.4759 	 4.4000
  0.8000 	 1.3000 	 4.7964 	 21.4867 	 2.2581 	 25.2272 	 2.7664 	 39.4240 	 43.8085 	 14.1969 	 4.4000
  0.8000 	 1.4000 	 4.9252 	 21.2005 	 2.1179 	 27.9610 	 2.6842 	 41.5712 	 38.5325 	 13.6101 	 4.4000
  0.8000 	 1.5000 	 5.0368 	 20.9615 	 1.9951 	 30.8558 	 2.6160 	 43.5347 	 33.1877 	 12.6788 	 4.4000
  0.8000 	 1.6000 	 5.1345 	 20.7589 	 1.8866 	 34.0039 	 2.5588 	 45.3337 	 27.6000 	 11.3297 	 4.4000
  0.8000 	 1.0000 	 4.2020 	 23.2387 	 2.8912 	 17.2683 	 3.2016 	 31.1875 	 60.3837 	 13.9192 	 4.5000
  0.8000 	 1.1000 	 4.4200 	 22.6505 	 2.6611 	 19.8222 	 3.0418 	 34.0279 	 54.7154 	 14.2057 	 4.5000
  0.8000 	 1.2000 	 4.6016 	 22.1931 	 2.4676 	 22.3987 	 2.9143 	 36.6140 	 49.2400 	 14.2154 	 4.5000
  0.8000 	 1.3000 	 4.7554 	 21.8270 	 2.3024 	 25.0341 	 2.8112 	 38.9723 	 43.8869 	 13.9382 	 4.5000
  0.8000 	 1.4000 	 4.8871 	 21.5272 	 2.1594 	 27.7718 	 2.7265 	 41.1264 	 38.5705 	 13.3546 	 4.5000
  0.8000 	 1.5000 	 5.0013 	 21.2771 	 2.0343 	 30.6708 	 2.6563 	 43.0974 	 33.1757 	 12.4266 	 4.5000
  0.8000 	 1.6000 	 5.1012 	 21.0653 	 1.9238 	 33.8254 	 2.5974 	 44.9044 	 27.5221 	 11.0790 	 4.5000
  0.9000 	 1.0000 	 5.0546 	 16.9548 	 1.9010 	 17.6133 	 2.2996 	 39.8649 	 53.1149 	 22.2516 	 2.9000
  0.9000 	 1.1000 	 5.1951 	 16.7223 	 1.7429 	 19.9574 	 2.2077 	 42.6173 	 48.2532 	 22.6599 	 2.9000
  0.9000 	 1.2000 	 5.3122 	 16.5357 	 1.6087 	 22.3646 	 2.1351 	 45.0832 	 43.6572 	 22.7186 	 2.9000
  0.9000 	 1.3000 	 5.4112 	 16.3826 	 1.4929 	 24.8691 	 2.0768 	 47.2981 	 39.2651 	 22.4290 	 2.9000
  0.9000 	 1.4000 	 5.4961 	 16.2547 	 1.3916 	 27.5122 	 2.0294 	 49.2934 	 35.0129 	 21.7812 	 2.9000
  0.9000 	 1.5000 	 5.5697 	 16.1462 	 1.3019 	 30.3481 	 1.9903 	 51.0962 	 30.8287 	 20.7481 	 2.9000
  0.9000 	 1.6000 	 5.6341 	 16.0531 	 1.2217 	 33.4545 	 1.9578 	 52.7303 	 26.6224 	 19.2758 	 2.9000
  0.9000 	 1.0000 	 5.0013 	 17.3391 	 1.9602 	 17.5642 	 2.3571 	 39.2248 	 53.5074 	 21.6606 	 3.0000
  0.9000 	 1.1000 	 5.1467 	 17.0907 	 1.7978 	 19.9221 	 2.2610 	 41.9866 	 48.6225 	 22.0645 	 3.0000
  0.9000 	 1.2000 	 5.2678 	 16.8917 	 1.6600 	 22.3395 	 2.1851 	 44.4643 	 43.9989 	 22.1248 	 3.0000
  0.9000 	 1.3000 	 5.3702 	 16.7285 	 1.5411 	 24.8503 	 2.1242 	 46.6925 	 39.5757 	 21.8422 	 3.0000
  0.9000 	 1.4000 	 5.4581 	 16.5924 	 1.4373 	 27.4949 	 2.0746 	 48.7019 	 35.2892 	 21.2070 	 3.0000
  0.9000 	 1.5000 	 5.5342 	 16.4771 	 1.3455 	 30.3262 	 2.0337 	 50.5192 	 31.0672 	 20.1930 	 3.0000
  0.9000 	 1.6000 	 5.6008 	 16.3782 	 1.2634 	 33.4207 	 1.9996 	 52.1678 	 26.8188 	 18.7471 	 3.0000
  0.9000 	 1.0000 	 4.9480 	 17.7235 	 2.0192 	 17.4988 	 2.4143 	 38.6012 	 53.8761 	 21.1024 	 3.1000
  0.9000 	 1.1000 	 5.0982 	 17.4584 	 1.8522 	 19.8697 	 2.3142 	 41.3716 	 48.9681 	 21.5020 	 3.1000
  0.9000 	 1.2000 	 5.2234 	 17.2464 	 1.7108 	 22.2969 	 2.2350 	 43.8603 	 44.3170 	 21.5634 	 3.1000
  0.9000 	 1.3000 	 5.3293 	 17.0729 	 1.5889 	 24.8138 	 2.1714 	 46.1010 	 39.8626 	 21.2872 	 3.1000
  0.9000 	 1.4000 	 5.4200 	 16.9282 	 1.4826 	 27.4604 	 2.1195 	 48.1237 	 35.5414 	 20.6633 	 3.1000
  0.9000 	 1.5000 	 5.4987 	 16.8058 	 1.3886 	 30.2888 	 2.0768 	 49.9548 	 31.2807 	 19.6661 	 3.1000
  0.9000 	 1.6000 	 5.5675 	 16.7009 	 1.3047 	 33.3740 	 2.0411 	 51.6173 	 26.9886 	 18.2433 	 3.1000
  0.9000 	 1.0000 	 4.8947 	 18.1080 	 2.0778 	 17.4191 	 2.4714 	 37.9932 	 54.2231 	 20.5741 	 3.2000
  0.9000 	 1.1000 	 5.0498 	 17.8256 	 1.9064 	 19.8021 	 2.3671 	 40.7716 	 49.2923 	 20.9695 	 3.2000
  0.9000 	 1.2000 	 5.1789 	 17.6000 	 1.7613 	 22.2386 	 2.2846 	 43.2704 	 44.6139 	 21.0318 	 3.2000
  0.9000 	 1.3000 	 5.2883 	 17.4158 	 1.6364 	 24.7617 	 2.2183 	 45.5229 	 40.1283 	 20.7612 	 3.2000
  0.9000 	 1.4000 	 5.3820 	 17.2623 	 1.5274 	 27.4107 	 2.1642 	 47.5583 	 35.7720 	 20.1476 	 3.2000
  0.9000 	 1.5000 	 5.4632 	 17.1326 	 1.4313 	 30.2371 	 2.1195 	 49.4025 	 31.4720 	 19.1654 	 3.2000
  0.9000 	 1.6000 	 5.5342 	 17.0214 	 1.3455 	 33.3153 	 2.0823 	 51.0782 	 27.1350 	 17.7629 	 3.2000
  0.9000 	 1.0000 	 4.8414 	 18.4930 	 2.1361 	 17.3266 	 2.5283 	 37.3999 	 54.5503 	 20.0734 	 3.3000
  0.9000 	 1.1000 	 5.0013 	 18.1925 	 1.9602 	 19.7210 	 2.4199 	 40.1856 	 49.5971 	 20.4645 	 3.3000
  0.9000 	 1.2000 	 5.1345 	 17.9529 	 1.8114 	 22.1664 	 2.3340 	 42.6940 	 44.8916 	 20.5276 	 3.3000
  0.9000 	 1.3000 	 5.2473 	 17.7574 	 1.6835 	 24.6954 	 2.2649 	 44.9575 	 40.3748 	 20.2621 	 3.3000
  0.9000 	 1.4000 	 5.3439 	 17.5949 	 1.5719 	 27.3472 	 2.2086 	 47.0049 	 35.9832 	 19.6577 	 3.3000
  0.9000 	 1.5000 	 5.4276 	 17.4576 	 1.4735 	 30.1727 	 2.1620 	 48.8616 	 31.6434 	 18.6889 	 3.3000
  0.9000 	 1.6000 	 5.5009 	 17.3400 	 1.3859 	 33.2456 	 2.1232 	 50.5500 	 27.2605 	 17.3044 	 3.3000
  0.9000 	 1.0000 	 4.7882 	 18.8787 	 2.1942 	 17.2227 	 2.5851 	 36.8206 	 54.8595 	 19.5979 	 3.4000
  0.9000 	 1.1000 	 4.9529 	 18.5593 	 2.0138 	 19.6280 	 2.4725 	 39.6129 	 49.8841 	 19.9849 	 3.4000
  0.9000 	 1.2000 	 5.0901 	 18.3052 	 1.8613 	 22.0817 	 2.3832 	 42.1302 	 45.1517 	 20.0485 	 3.4000
  0.9000 	 1.3000 	 5.2063 	 18.0981 	 1.7302 	 24.6166 	 2.3114 	 44.4041 	 40.6039 	 19.7876 	 3.4000
  0.9000 	 1.4000 	 5.3058 	 17.9261 	 1.6161 	 27.2713 	 2.2527 	 46.4629 	 36.1771 	 19.1916 	 3.4000
  0.9000 	 1.5000 	 5.3921 	 17.7810 	 1.5155 	 30.0966 	 2.2043 	 48.3316 	 31.7971 	 18.2350 	 3.4000
  0.9000 	 1.6000 	 5.4676 	 17.6568 	 1.4259 	 33.1658 	 2.1639 	 50.0322 	 27.3673 	 16.8664 	 3.4000
  0.9000 	 1.0000 	 4.7349 	 19.2654 	 2.2520 	 17.1087 	 2.6417 	 36.2545 	 55.1522 	 19.1458 	 3.5000
  0.9000 	 1.1000 	 4.9044 	 18.9264 	 2.0671 	 19.5242 	 2.5249 	 39.0529 	 50.1549 	 19.5287 	 3.5000
  0.9000 	 1.2000 	 5.0457 	 18.6571 	 1.9109 	 21.9859 	 2.4322 	 41.5785 	 45.3960 	 19.5926 	 3.5000
  0.9000 	 1.3000 	 5.1653 	 18.4380 	 1.7767 	 24.5264 	 2.3576 	 43.8623 	 40.8173 	 19.3359 	 3.5000
  0.9000 	 1.4000 	 5.2678 	 18.2562 	 1.6600 	 27.1843 	 2.2967 	 45.9319 	 36.3552 	 18.7476 	 3.5000
  0.9000 	 1.5000 	 5.3566 	 18.1029 	 1.5571 	 30.0099 	 2.2464 	 47.8120 	 31.9348 	 17.8021 	 3.5000
  0.9000 	 1.6000 	 5.4343 	 17.9719 	 1.4656 	 33.0766 	 2.2043 	 49.5243 	 27.4576 	 16.4477 	 3.5000
  0.9000 	 1.0000 	 4.6816 	 19.6534 	 2.3097 	 16.9857 	 2.6982 	 35.7009 	 55.4296 	 18.7152 	 3.6000
  0.9000 	 1.1000 	 4.8560 	 19.2938 	 2.1202 	 19.4108 	 2.5771 	 38.5049 	 50.4108 	 19.0941 	 3.6000
  0.9000 	 1.2000 	 5.0013 	 19.0087 	 1.9602 	 21.8801 	 2.4811 	 41.0383 	 45.6257 	 19.1582 	 3.6000
  0.9000 	 1.3000 	 5.1243 	 18.7772 	 1.8230 	 24.4261 	 2.4037 	 43.3314 	 41.0164 	 18.9053 	 3.6000
  0.9000 	 1.4000 	 5.2297 	 18.5853 	 1.7035 	 27.0871 	 2.3405 	 45.4113 	 36.5191 	 18.3242 	 3.6000
  0.9000 	 1.5000 	 5.3211 	 18.4237 	 1.5985 	 29.9137 	 2.2882 	 47.3023 	 32.0582 	 17.3887 	 3.6000
  0.9000 	 1.6000 	 5.4010 	 18.2856 	 1.5050 	 32.9788 	 2.2445 	 49.0258 	 27.5329 	 16.0470 	 3.6000
  0.9000 	 1.0000 	 4.6283 	 20.0428 	 2.3671 	 16.8545 	 2.7546 	 35.1591 	 55.6929 	 18.3046 	 3.7000
  0.9000 	 1.1000 	 4.8075 	 19.6618 	 2.1731 	 19.2888 	 2.6292 	 37.9684 	 50.6530 	 18.6795 	 3.7000
  0.9000 	 1.2000 	 4.9569 	 19.3604 	 2.0094 	 21.7653 	 2.5298 	 40.5091 	 45.8421 	 18.7437 	 3.7000
  0.9000 	 1.3000 	 5.0833 	 19.1159 	 1.8689 	 24.3166 	 2.4496 	 42.8109 	 41.2024 	 18.4944 	 3.7000
  0.9000 	 1.4000 	 5.1916 	 18.9136 	 1.7469 	 26.9809 	 2.3840 	 44.9007 	 36.6701 	 17.9198 	 3.7000
  0.9000 	 1.5000 	 5.2855 	 18.7433 	 1.6395 	 29.8087 	 2.3298 	 46.8021 	 32.1685 	 16.9935 	 3.7000
  0.9000 	 1.6000 	 5.3677 	 18.5980 	 1.5441 	 32.8731 	 2.2844 	 48.5364 	 27.5947 	 15.6632 	 3.7000
  0.9000 	 1.0000 	 4.5750 	 20.4339 	 2.4243 	 16.7160 	 2.8108 	 34.6286 	 55.9433 	 17.9126 	 3.8000
  0.9000 	 1.1000 	 4.7591 	 20.0306 	 2.2258 	 19.1591 	 2.6812 	 37.4427 	 50.8827 	 18.2836 	 3.8000
  0.9000 	 1.2000 	 4.9125 	 19.7122 	 2.0583 	 21.6425 	 2.5783 	 39.9902 	 46.0463 	 18.3478 	 3.8000
  0.9000 	 1.3000 	 5.0423 	 19.4543 	 1.9147 	 24.1988 	 2.4953 	 42.3005 	 41.3766 	 18.1017 	 3.8000
  0.9000 	 1.4000 	 5.1536 	 19.2411 	 1.7900 	 26.8664 	 2.4274 	 44.3996 	 36.8094 	 17.5331 	 3.8000
  0.9000 	 1.5000 	 5.2500 	 19.0620 	 1.6803 	 29.6957 	 2.3712 	 46.3110 	 32.2671 	 16.6153 	 3.8000
  0.9000 	 1.6000 	 5.3344 	 18.9092 	 1.5830 	 32.7602 	 2.3242 	 48.0556 	 27.6445 	 15.2954 	 3.8000
  0.9000 	 1.0000 	 4.5217 	 20.8269 	 2.4814 	 16.5709 	 2.8669 	 34.1088 	 56.1816 	 17.5379 	 3.9000
  0.9000 	 1.1000 	 4.7106 	 20.4004 	 2.2783 	 19.0223 	 2.7331 	 36.9274 	 51.1007 	 17.9050 	 3.9000
  0.9000 	 1.2000 	 4.8681 	 20.0643 	 2.1070 	 21.5123 	 2.6267 	 39.4814 	 46.2392 	 17.9691 	 3.9000
  0.9000 	 1.3000 	 5.0013 	 19.7926 	 1.9602 	 24.0735 	 2.5408 	 41.7995 	 41.5398 	 17.7260 	 3.9000
  0.9000 	 1.4000 	 5.1155 	 19.5682 	 1.8328 	 26.7444 	 2.4706 	 43.9075 	 36.9380 	 17.1631 	 3.9000
  0.9000 	 1.5000 	 5.2145 	 19.3798 	 1.7209 	 29.5755 	 2.4124 	 45.8285 	 32.3550 	 16.2531 	 3.9000
  0.9000 	 1.6000 	 5.3011 	 19.2194 	 1.6216 	 32.6406 	 2.3637 	 47.5831 	 27.6833 	 14.9425 	 3.9000
  0.9000 	 1.0000 	 4.4684 	 21.2221 	 2.5383 	 16.4199 	 2.9229 	 33.5992 	 56.4088 	 17.1793 	 4.0000
  0.9000 	 1.1000 	 4.6622 	 20.7714 	 2.3306 	 18.8793 	 2.7848 	 36.4219 	 51.3080 	 17.5426 	 4.0000
  0.9000 	 1.2000 	 4.8237 	 20.4170 	 2.1555 	 21.3756 	 2.6749 	 38.9820 	 46.4217 	 17.6065 	 4.0000
  0.9000 	 1.3000 	 4.9603 	 20.1308 	 2.0056 	 23.9415 	 2.5862 	 41.3077 	 41.6929 	 17.3662 	 4.0000
  0.9000 	 1.4000 	 5.0774 	 19.8949 	 1.8755 	 26.6157 	 2.5136 	 43.4242 	 37.0567 	 16.8086 	 4.0000
  0.9000 	 1.5000 	 5.1789 	 19.6970 	 1.7613 	 29.4486 	 2.4534 	 45.3544 	 32.4333 	 15.9058 	 4.0000
  0.9000 	 1.6000 	 5.2678 	 19.5286 	 1.6600 	 32.5148 	 2.4031 	 47.1185 	 27.7121 	 14.6037 	 4.0000
  0.9000 	 1.0000 	 4.4151 	 21.6197 	 2.5950 	 16.2635 	 2.9789 	 33.0992 	 56.6256 	 16.8357 	 4.1000
  0.9000 	 1.1000 	 4.6138 	 21.1438 	 2.3827 	 18.7306 	 2.8364 	 35.9259 	 51.5053 	 17.1953 	 4.1000
  0.9000 	 1.2000 	 4.7793 	 20.7703 	 2.2038 	 21.2329 	 2.7231 	 38.4918 	 46.5947 	 17.2589 	 4.1000
  0.9000 	 1.3000 	 4.9193 	 20.4692 	 2.0508 	 23.8033 	 2.6315 	 40.8246 	 41.8369 	 17.0212 	 4.1000
  0.9000 	 1.4000 	 5.0394 	 20.2214 	 1.9180 	 26.4807 	 2.5565 	 42.9493 	 37.1665 	 16.4686 	 4.1000
  0.9000 	 1.5000 	 5.1434 	 20.0137 	 1.8014 	 29.3157 	 2.4943 	 44.8883 	 32.5026 	 15.5725 	 4.1000
  0.9000 	 1.6000 	 5.2345 	 19.8371 	 1.6981 	 32.3835 	 2.4423 	 46.6616 	 27.7320 	 14.2781 	 4.1000
  0.9000 	 1.0000 	 4.3618 	 22.0200 	 2.6516 	 16.1023 	 3.0347 	 32.6085 	 56.8327 	 16.5062 	 4.2000
  0.9000 	 1.1000 	 4.5653 	 21.5177 	 2.4347 	 18.5767 	 2.8879 	 35.4389 	 51.6932 	 16.8622 	 4.2000
  0.9000 	 1.2000 	 4.7349 	 21.1244 	 2.2520 	 21.0848 	 2.7710 	 38.0102 	 46.7587 	 16.9255 	 4.2000
  0.9000 	 1.3000 	 4.8783 	 20.8079 	 2.0958 	 23.6596 	 2.6766 	 40.3498 	 41.9723 	 16.6902 	 4.2000
  0.9000 	 1.4000 	 5.0013 	 20.5477 	 1.9602 	 26.3401 	 2.5992 	 42.4823 	 37.2681 	 16.1422 	 4.2000
  0.9000 	 1.5000 	 5.1079 	 20.3299 	 1.8414 	 29.1773 	 2.5350 	 44.4298 	 32.5640 	 15.2525 	 4.2000
  0.9000 	 1.6000 	 5.2012 	 20.1449 	 1.7361 	 32.2469 	 2.4813 	 46.2120 	 27.7437 	 13.9651 	 4.2000
  0.9000 	 1.0000 	 4.3086 	 22.4230 	 2.7081 	 15.9366 	 3.0904 	 32.1266 	 57.0308 	 16.1900 	 4.3000
  0.9000 	 1.1000 	 4.5169 	 21.8933 	 2.4865 	 18.4182 	 2.9393 	 34.9605 	 51.8726 	 16.5423 	 4.3000
  0.9000 	 1.2000 	 4.6905 	 21.4795 	 2.3001 	 20.9318 	 2.8189 	 37.5370 	 46.9146 	 16.6052 	 4.3000
  0.9000 	 1.3000 	 4.8373 	 21.1470 	 2.1406 	 23.5108 	 2.7216 	 39.8831 	 42.0998 	 16.3722 	 4.3000
  0.9000 	 1.4000 	 4.9633 	 20.8740 	 2.0024 	 26.1944 	 2.6418 	 42.0231 	 37.3622 	 15.8286 	 4.3000
  0.9000 	 1.5000 	 5.0724 	 20.6458 	 1.8812 	 29.0339 	 2.5756 	 43.9787 	 32.6179 	 14.9448 	 4.3000
  0.9000 	 1.6000 	 5.1678 	 20.4521 	 1.7738 	 32.1055 	 2.5201 	 45.7694 	 27.7480 	 13.6639 	 4.3000
  0.9000 	 1.0000 	 4.2553 	 22.8292 	 2.7644 	 15.7669 	 3.1461 	 31.6530 	 57.2205 	 15.8861 	 4.4000
  0.9000 	 1.1000 	 4.4684 	 22.2709 	 2.5383 	 18.2554 	 2.9906 	 34.4902 	 52.0439 	 16.2349 	 4.4000
  0.9000 	 1.2000 	 4.6461 	 21.8357 	 2.3480 	 20.7743 	 2.8667 	 37.0717 	 47.0627 	 16.2974 	 4.4000
  0.9000 	 1.3000 	 4.7964 	 21.4867 	 2.1853 	 23.3575 	 2.7664 	 39.4240 	 42.2201 	 16.0666 	 4.4000
  0.9000 	 1.4000 	 4.9252 	 21.2005 	 2.0443 	 26.0441 	 2.6842 	 41.5712 	 37.4492 	 15.5271 	 4.4000
  0.9000 	 1.5000 	 5.0368 	 20.9615 	 1.9208 	 28.8858 	 2.6160 	 43.5347 	 32.6651 	 14.6489 	 4.4000
  0.9000 	 1.6000 	 5.1345 	 20.7589 	 1.8114 	 31.9598 	 2.5588 	 45.3337 	 27.7454 	 13.3739 	 4.4000
  0.9000 	 1.0000 	 4.2020 	 23.2387 	 2.8206 	 15.5936 	 3.2016 	 31.1875 	 57.4023 	 15.5939 	 4.5000
  0.9000 	 1.1000 	 4.4200 	 22.6505 	 2.5898 	 18.0887 	 3.0418 	 34.0279 	 52.2077 	 15.9392 	 4.5000
  0.9000 	 1.2000 	 4.6016 	 22.1931 	 2.3957 	 20.6128 	 2.9143 	 36.6140 	 47.2038 	 16.0012 	 4.5000
  0.9000 	 1.3000 	 4.7554 	 21.8270 	 2.2298 	 23.1999 	 2.8112 	 38.9723 	 42.3336 	 15.7724 	 4.5000
  0.9000 	 1.4000 	 4.8871 	 21.5272 	 2.0861 	 25.8894 	 2.7265 	 41.1264 	 37.5299 	 15.2369 	 4.5000
  0.9000 	 1.5000 	 5.0013 	 21.2771 	 1.9602 	 28.7335 	 2.6563 	 43.0974 	 32.7061 	 14.3639 	 4.5000
  0.9000 	 1.6000 	 5.1012 	 21.0653 	 1.8489 	 31.8100 	 2.5974 	 44.9044 	 27.7367 	 13.0944 	 4.5000
  1.0000 	 1.0000 	 5.0546 	 16.9548 	 1.8214 	 15.0852 	 2.2996 	 39.8649 	 49.7649 	 24.7796 	 2.9000
  1.0000 	 1.1000 	 5.1951 	 16.7223 	 1.6618 	 17.3493 	 2.2077 	 42.6173 	 45.1808 	 25.2679 	 2.9000
  1.0000 	 1.2000 	 5.3122 	 16.5357 	 1.5259 	 19.7022 	 2.1351 	 45.0832 	 40.8482 	 25.3810 	 2.9000
  1.0000 	 1.3000 	 5.4112 	 16.3826 	 1.4083 	 22.1820 	 2.0768 	 47.2981 	 36.7095 	 25.1162 	 2.9000
  1.0000 	 1.4000 	 5.4961 	 16.2547 	 1.3050 	 24.8361 	 2.0294 	 49.2934 	 32.7043 	 24.4573 	 2.9000
  1.0000 	 1.5000 	 5.5697 	 16.1462 	 1.2132 	 27.7284 	 1.9903 	 51.0962 	 28.7648 	 23.3679 	 2.9000
  1.0000 	 1.6000 	 5.6341 	 16.0531 	 1.1308 	 30.9515 	 1.9578 	 52.7303 	 24.8053 	 21.7788 	 2.9000
  1.0000 	 1.7000 	 5.6909 	 15.9722 	 1.0559 	 34.6569 	 1.9304 	 54.2161 	 20.7006 	 19.5592 	 2.9000
  1.0000 	 1.0000 	 5.0013 	 17.3391 	 1.8811 	 15.1168 	 2.3571 	 39.2248 	 50.2073 	 24.1080 	 3.0000
  1.0000 	 1.1000 	 5.1467 	 17.0907 	 1.7172 	 17.3963 	 2.2610 	 41.9866 	 45.6081 	 24.5903 	 3.0000
  1.0000 	 1.2000 	 5.2678 	 16.8917 	 1.5778 	 19.7592 	 2.1851 	 44.4643 	 41.2570 	 24.7051 	 3.0000
  1.0000 	 1.3000 	 5.3702 	 16.7285 	 1.4573 	 22.2425 	 2.1242 	 46.6925 	 37.0976 	 24.4501 	 3.0000
  1.0000 	 1.4000 	 5.4581 	 16.5924 	 1.3516 	 24.8917 	 2.0746 	 48.7019 	 33.0703 	 23.8101 	 3.0000
  1.0000 	 1.5000 	 5.5342 	 16.4771 	 1.2579 	 27.7678 	 2.0337 	 50.5192 	 29.1079 	 22.7514 	 3.0000
  1.0000 	 1.6000 	 5.6008 	 16.3782 	 1.1737 	 30.9592 	 1.9996 	 52.1678 	 25.1257 	 21.2086 	 3.0000
  1.0000 	 1.7000 	 5.6596 	 16.2923 	 1.0975 	 34.6090 	 1.9709 	 53.6679 	 20.9996 	 19.0589 	 3.0000
  1.0000 	 1.0000 	 4.9480 	 17.7235 	 1.9405 	 15.1267 	 2.4143 	 38.6012 	 50.6224 	 23.4744 	 3.1000
  1.0000 	 1.1000 	 5.0982 	 17.4584 	 1.7722 	 17.4208 	 2.3142 	 41.3716 	 46.0077 	 23.9509 	 3.1000
  1.0000 	 1.2000 	 5.2234 	 17.2464 	 1.6293 	 19.7933 	 2.2350 	 43.8603 	 41.6376 	 24.0670 	 3.1000
  1.0000 	 1.3000 	 5.3293 	 17.0729 	 1.5058 	 22.2805 	 2.1714 	 46.1010 	 37.4565 	 23.8205 	 3.1000
  1.0000 	 1.4000 	 5.4200 	 16.9282 	 1.3977 	 24.9263 	 2.1195 	 48.1237 	 33.4058 	 23.1974 	 3.1000
  1.0000 	 1.5000 	 5.4987 	 16.8058 	 1.3019 	 27.7894 	 2.0768 	 49.9548 	 29.4187 	 22.1654 	 3.1000
  1.0000 	 1.6000 	 5.5675 	 16.7009 	 1.2161 	 30.9545 	 2.0411 	 51.6173 	 25.4109 	 20.6628 	 3.1000
  1.0000 	 1.7000 	 5.6283 	 16.6099 	 1.1384 	 34.5584 	 2.0110 	 53.1311 	 21.2589 	 18.5728 	 3.1000
  1.0000 	 1.0000 	 4.8947 	 18.1080 	 1.9995 	 15.1175 	 2.4714 	 37.9932 	 51.0125 	 22.8757 	 3.2000
  1.0000 	 1.1000 	 5.0498 	 17.8256 	 1.8268 	 17.4252 	 2.3671 	 40.7716 	 46.3821 	 23.3464 	 3.2000
  1.0000 	 1.2000 	 5.1789 	 17.6000 	 1.6803 	 19.8071 	 2.2846 	 43.2704 	 41.9926 	 23.4634 	 3.2000
  1.0000 	 1.3000 	 5.2883 	 17.4158 	 1.5539 	 22.2984 	 2.2183 	 45.5229 	 37.7893 	 23.2245 	 3.2000
  1.0000 	 1.4000 	 5.3820 	 17.2623 	 1.4433 	 24.9419 	 2.1642 	 47.5583 	 33.7142 	 22.6163 	 3.2000
  1.0000 	 1.5000 	 5.4632 	 17.1326 	 1.3455 	 27.7945 	 2.1195 	 49.4025 	 29.7008 	 21.6080 	 3.2000
  1.0000 	 1.6000 	 5.5342 	 17.0214 	 1.2579 	 30.9378 	 2.0823 	 51.0782 	 25.6651 	 20.1405 	 3.2000
  1.0000 	 1.7000 	 5.5969 	 16.9251 	 1.1787 	 34.5035 	 2.0509 	 52.6052 	 21.4835 	 18.1017 	 3.2000
  1.0000 	 1.0000 	 4.8414 	 18.4930 	 2.0582 	 15.0912 	 2.5283 	 37.3999 	 51.3801 	 22.3087 	 3.3000
  1.0000 	 1.1000 	 5.0013 	 18.1925 	 1.8811 	 17.4118 	 2.4199 	 40.1856 	 46.7338 	 22.7738 	 3.3000
  1.0000 	 1.2000 	 5.1345 	 17.9529 	 1.7310 	 19.8026 	 2.3340 	 42.6940 	 42.3246 	 22.8914 	 3.3000
  1.0000 	 1.3000 	 5.2473 	 17.7574 	 1.6016 	 22.2982 	 2.2649 	 44.9575 	 38.0986 	 22.6593 	 3.3000
  1.0000 	 1.4000 	 5.3439 	 17.5949 	 1.4885 	 24.9404 	 2.2086 	 47.0049 	 33.9983 	 22.0644 	 3.3000
  1.0000 	 1.5000 	 5.4276 	 17.4576 	 1.3885 	 27.7844 	 2.1620 	 48.8616 	 29.9575 	 21.0772 	 3.3000
  1.0000 	 1.6000 	 5.5009 	 17.3400 	 1.2992 	 30.9096 	 2.1232 	 50.5500 	 25.8918 	 19.6405 	 3.3000
  1.0000 	 1.7000 	 5.5656 	 17.2382 	 1.2185 	 34.4436 	 2.0905 	 52.0897 	 21.6774 	 17.6461 	 3.3000
  1.0000 	 1.0000 	 4.7882 	 18.8787 	 2.1167 	 15.0496 	 2.5851 	 36.8206 	 51.7271 	 21.7710 	 3.4000
  1.0000 	 1.1000 	 4.9529 	 18.5593 	 1.9351 	 17.3823 	 2.4725 	 39.6129 	 47.0648 	 22.2306 	 3.4000
  1.0000 	 1.2000 	 5.0901 	 18.3052 	 1.7813 	 19.7817 	 2.3832 	 42.1302 	 42.6357 	 22.3485 	 3.4000
  1.0000 	 1.3000 	 5.2063 	 18.0981 	 1.6489 	 22.2817 	 2.3114 	 44.4041 	 38.3867 	 22.1224 	 3.4000
  1.0000 	 1.4000 	 5.3058 	 17.9261 	 1.5333 	 24.9234 	 2.2527 	 46.4629 	 34.2606 	 21.5396 	 3.4000
  1.0000 	 1.5000 	 5.3921 	 17.7810 	 1.4312 	 27.7605 	 2.2043 	 48.3316 	 30.1913 	 20.5711 	 3.4000
  1.0000 	 1.6000 	 5.4676 	 17.6568 	 1.3400 	 30.8705 	 2.1639 	 50.0322 	 26.0942 	 19.1617 	 3.4000
  1.0000 	 1.7000 	 5.5342 	 17.5494 	 1.2579 	 34.3781 	 2.1298 	 51.5840 	 21.8441 	 17.2059 	 3.4000
  1.0000 	 1.0000 	 4.7349 	 19.2654 	 2.1748 	 14.9943 	 2.6417 	 36.2545 	 52.0551 	 21.2602 	 3.5000
  1.0000 	 1.1000 	 4.9044 	 18.9264 	 1.9888 	 17.3385 	 2.5249 	 39.0529 	 47.3769 	 21.7143 	 3.5000
  1.0000 	 1.2000 	 5.0457 	 18.6571 	 1.8314 	 19.7461 	 2.4322 	 41.5785 	 42.9279 	 21.8324 	 3.5000
  1.0000 	 1.3000 	 5.1653 	 18.4380 	 1.6959 	 22.2506 	 2.3576 	 43.8623 	 38.6556 	 21.6117 	 3.5000
  1.0000 	 1.4000 	 5.2678 	 18.2562 	 1.5778 	 24.8922 	 2.2967 	 45.9319 	 34.5032 	 21.0397 	 3.5000
  1.0000 	 1.5000 	 5.3566 	 18.1029 	 1.4735 	 27.7238 	 2.2464 	 47.8120 	 30.4046 	 20.0882 	 3.5000
  1.0000 	 1.6000 	 5.4343 	 17.9719 	 1.3805 	 30.8213 	 2.2043 	 49.5243 	 26.2747 	 18.7030 	 3.5000
  1.0000 	 1.7000 	 5.5029 	 17.8587 	 1.2968 	 34.3068 	 2.1688 	 51.0878 	 21.9868 	 16.7811 	 3.5000
  1.0000 	 1.0000 	 4.6816 	 19.6534 	 2.2328 	 14.9267 	 2.6982 	 35.7009 	 52.3658 	 20.7742 	 3.6000
  1.0000 	 1.1000 	 4.8560 	 19.2938 	 2.0423 	 17.2818 	 2.5771 	 38.5049 	 47.6717 	 21.2231 	 3.6000
  1.0000 	 1.2000 	 5.0013 	 19.0087 	 1.8811 	 19.6973 	 2.4811 	 41.0383 	 43.2027 	 21.3411 	 3.6000
  1.0000 	 1.3000 	 5.1243 	 18.7772 	 1.7426 	 22.2062 	 2.4037 	 43.3314 	 38.9070 	 21.1252 	 3.6000
  1.0000 	 1.4000 	 5.2297 	 18.5853 	 1.6219 	 24.8483 	 2.3405 	 45.4113 	 34.7281 	 20.5630 	 3.6000
  1.0000 	 1.5000 	 5.3211 	 18.4237 	 1.5155 	 27.6755 	 2.2882 	 47.3023 	 30.5995 	 19.6268 	 3.6000
  1.0000 	 1.6000 	 5.4010 	 18.2856 	 1.4206 	 30.7625 	 2.2445 	 49.0258 	 26.4356 	 18.2633 	 3.6000
  1.0000 	 1.7000 	 5.4715 	 18.1664 	 1.3353 	 34.2294 	 2.2076 	 50.6006 	 22.1079 	 16.3712 	 3.6000
  1.0000 	 1.0000 	 4.6283 	 20.0428 	 2.2904 	 14.8480 	 2.7546 	 35.1591 	 52.6605 	 20.3111 	 3.7000
  1.0000 	 1.1000 	 4.8075 	 19.6618 	 2.0955 	 17.2135 	 2.6292 	 37.9684 	 47.9506 	 20.7548 	 3.7000
  1.0000 	 1.2000 	 4.9569 	 19.3604 	 1.9306 	 19.6364 	 2.5298 	 40.5091 	 43.4617 	 20.8726 	 3.7000
  1.0000 	 1.3000 	 5.0833 	 19.1159 	 1.7891 	 22.1498 	 2.4496 	 42.8109 	 39.1426 	 20.6612 	 3.7000
  1.0000 	 1.4000 	 5.1916 	 18.9136 	 1.6658 	 24.7927 	 2.3840 	 44.9007 	 34.9367 	 20.1080 	 3.7000
  1.0000 	 1.5000 	 5.2855 	 18.7433 	 1.5571 	 27.6165 	 2.3298 	 46.8021 	 30.7778 	 19.1857 	 3.7000
  1.0000 	 1.6000 	 5.3677 	 18.5980 	 1.4603 	 30.6947 	 2.2844 	 48.5364 	 26.5789 	 17.8417 	 3.7000
  1.0000 	 1.7000 	 5.4402 	 18.4726 	 1.3734 	 34.1462 	 2.2462 	 50.1220 	 22.2098 	 15.9758 	 3.7000
  1.0000 	 1.0000 	 4.5750 	 20.4339 	 2.3479 	 14.7592 	 2.8108 	 34.6286 	 52.9404 	 19.8694 	 3.8000
  1.0000 	 1.1000 	 4.7591 	 20.0306 	 2.1484 	 17.1346 	 2.6812 	 37.4427 	 48.2149 	 20.3080 	 3.8000
  1.0000 	 1.2000 	 4.9125 	 19.7122 	 1.9799 	 19.5648 	 2.5783 	 39.9902 	 43.7062 	 20.4255 	 3.8000
  1.0000 	 1.3000 	 5.0423 	 19.4543 	 1.8352 	 22.0824 	 2.4953 	 42.3005 	 39.3635 	 20.2180 	 3.8000
  1.0000 	 1.4000 	 5.1536 	 19.2411 	 1.7093 	 24.7265 	 2.4274 	 44.3996 	 35.1307 	 19.6731 	 3.8000
  1.0000 	 1.5000 	 5.2500 	 19.0620 	 1.5984 	 27.5476 	 2.3712 	 46.3110 	 30.9409 	 18.7634 	 3.8000
  1.0000 	 1.6000 	 5.3344 	 18.9092 	 1.4998 	 30.6185 	 2.3242 	 48.0556 	 26.7064 	 17.4370 	 3.8000
  1.0000 	 1.7000 	 5.4088 	 18.7774 	 1.4112 	 34.0573 	 2.2845 	 49.6517 	 22.2943 	 15.5944 	 3.8000
  1.0000 	 1.0000 	 4.5217 	 20.8269 	 2.4052 	 14.6613 	 2.8669 	 34.1088 	 53.2067 	 19.4475 	 3.9000
  1.0000 	 1.1000 	 4.7106 	 20.4004 	 2.2012 	 17.0462 	 2.7331 	 36.9274 	 48.4657 	 19.8811 	 3.9000
  1.0000 	 1.2000 	 4.8681 	 20.0643 	 2.0289 	 19.4833 	 2.6267 	 39.4814 	 43.9373 	 19.9981 	 3.9000
  1.0000 	 1.3000 	 5.0013 	 19.7926 	 1.8811 	 22.0052 	 2.5408 	 41.7995 	 39.5712 	 19.7943 	 3.9000
  1.0000 	 1.4000 	 5.1155 	 19.5682 	 1.7526 	 24.6506 	 2.4706 	 43.9075 	 35.3112 	 19.2569 	 3.9000
  1.0000 	 1.5000 	 5.2145 	 19.3798 	 1.6395 	 27.4697 	 2.4124 	 45.8285 	 31.0903 	 18.3589 	 3.9000
  1.0000 	 1.6000 	 5.3011 	 19.2194 	 1.5389 	 30.5346 	 2.3637 	 47.5831 	 26.8195 	 17.0484 	 3.9000
  1.0000 	 1.7000 	 5.3775 	 19.0811 	 1.4487 	 33.9628 	 2.3226 	 49.1893 	 22.3631 	 15.2265 	 3.9000
  1.0000 	 1.0000 	 4.4684 	 21.2221 	 2.4623 	 14.5552 	 2.9229 	 33.5992 	 53.4604 	 19.0440 	 4.0000
  1.0000 	 1.1000 	 4.6622 	 20.7714 	 2.2538 	 16.9491 	 2.7848 	 36.4219 	 48.7040 	 19.4728 	 4.0000
  1.0000 	 1.2000 	 4.8237 	 20.4170 	 2.0778 	 19.3929 	 2.6749 	 38.9820 	 44.1560 	 19.5892 	 4.0000
  1.0000 	 1.3000 	 4.9603 	 20.1308 	 1.9268 	 21.9190 	 2.5862 	 41.3077 	 39.7666 	 19.3887 	 4.0000
  1.0000 	 1.4000 	 5.0774 	 19.8949 	 1.7957 	 24.5659 	 2.5136 	 43.4242 	 35.4795 	 18.8583 	 4.0000
  1.0000 	 1.5000 	 5.1789 	 19.6970 	 1.6803 	 27.3834 	 2.4534 	 45.3544 	 31.2272 	 17.9710 	 4.0000
  1.0000 	 1.6000 	 5.2678 	 19.5286 	 1.5778 	 30.4435 	 2.4031 	 47.1185 	 26.9195 	 16.6750 	 4.0000
  1.0000 	 1.7000 	 5.3461 	 19.3836 	 1.4859 	 33.8629 	 2.3605 	 48.7344 	 22.4178 	 14.8715 	 4.0000
  1.0000 	 1.0000 	 4.4151 	 21.6197 	 2.5193 	 14.4416 	 2.9789 	 33.0992 	 53.7024 	 18.6577 	 4.1000
  1.0000 	 1.1000 	 4.6138 	 21.1438 	 2.3061 	 16.8442 	 2.8364 	 35.9259 	 48.9308 	 19.0817 	 4.1000
  1.0000 	 1.2000 	 4.7793 	 20.7703 	 2.1264 	 19.2943 	 2.7231 	 38.4918 	 44.3634 	 19.1975 	 4.1000
  1.0000 	 1.3000 	 4.9193 	 20.4692 	 1.9723 	 21.8245 	 2.6315 	 40.8246 	 39.9507 	 19.0000 	 4.1000
  1.0000 	 1.4000 	 5.0394 	 20.2214 	 1.8385 	 24.4731 	 2.5565 	 42.9493 	 35.6365 	 18.4762 	 4.1000
  1.0000 	 1.5000 	 5.1434 	 20.0137 	 1.7209 	 27.2896 	 2.4943 	 44.8883 	 31.3527 	 17.5987 	 4.1000
  1.0000 	 1.6000 	 5.2345 	 19.8371 	 1.6164 	 30.3456 	 2.4423 	 46.6616 	 27.0078 	 16.3160 	 4.1000
  1.0000 	 1.7000 	 5.3148 	 19.6851 	 1.5228 	 33.7580 	 2.3983 	 48.2869 	 22.4597 	 14.5289 	 4.1000
  1.0000 	 1.0000 	 4.3618 	 22.0200 	 2.5761 	 14.3210 	 3.0347 	 32.6085 	 53.9334 	 18.2875 	 4.2000
  1.0000 	 1.1000 	 4.5653 	 21.5177 	 2.3584 	 16.7321 	 2.8879 	 35.4389 	 49.1468 	 18.7068 	 4.2000
  1.0000 	 1.2000 	 4.7349 	 21.1244 	 2.1748 	 19.1883 	 2.7710 	 38.0102 	 44.5603 	 18.8219 	 4.2000
  1.0000 	 1.3000 	 4.8783 	 20.8079 	 2.0176 	 21.7226 	 2.6766 	 40.3498 	 40.1245 	 18.6272 	 4.2000
  1.0000 	 1.4000 	 5.0013 	 20.5477 	 1.8811 	 24.3729 	 2.5992 	 42.4823 	 35.7832 	 18.1095 	 4.2000
  1.0000 	 1.5000 	 5.1079 	 20.3299 	 1.7612 	 27.1887 	 2.5350 	 44.4298 	 31.4678 	 17.2411 	 4.2000
  1.0000 	 1.6000 	 5.2012 	 20.1449 	 1.6548 	 30.2414 	 2.4813 	 46.2120 	 27.0852 	 15.9706 	 4.2000
  1.0000 	 1.7000 	 5.2834 	 19.9858 	 1.5595 	 33.6482 	 2.4358 	 47.8464 	 22.4898 	 14.1983 	 4.2000
  1.0000 	 1.0000 	 4.3086 	 22.4230 	 2.6327 	 14.1943 	 3.0904 	 32.1266 	 54.1542 	 17.9323 	 4.3000
  1.0000 	 1.1000 	 4.5169 	 21.8933 	 2.4104 	 16.6134 	 2.9393 	 34.9605 	 49.3529 	 18.3471 	 4.3000
  1.0000 	 1.2000 	 4.6905 	 21.4795 	 2.2231 	 19.0756 	 2.8189 	 37.5370 	 44.7474 	 18.4614 	 4.3000
  1.0000 	 1.3000 	 4.8373 	 21.1470 	 2.0627 	 21.6137 	 2.7216 	 39.8831 	 40.2887 	 18.2693 	 4.3000
  1.0000 	 1.4000 	 4.9633 	 20.8740 	 1.9236 	 24.2659 	 2.6418 	 42.0231 	 35.9204 	 17.7572 	 4.3000
  1.0000 	 1.5000 	 5.0724 	 20.6458 	 1.8014 	 27.0813 	 2.5756 	 43.9787 	 31.5733 	 16.8974 	 4.3000
  1.0000 	 1.6000 	 5.1678 	 20.4521 	 1.6930 	 30.1314 	 2.5201 	 45.7694 	 27.1528 	 15.6380 	 4.3000
  1.0000 	 1.7000 	 5.2521 	 20.2857 	 1.5960 	 33.5337 	 2.4732 	 47.4126 	 22.5094 	 13.8789 	 4.3000
  1.0000 	 1.0000 	 4.2553 	 22.8292 	 2.6892 	 14.0617 	 3.1461 	 31.6530 	 54.3655 	 17.5913 	 4.4000
  1.0000 	 1.1000 	 4.4684 	 22.2709 	 2.4623 	 16.4887 	 2.9906 	 34.4902 	 49.5497 	 18.0016 	 4.4000
  1.0000 	 1.2000 	 4.6461 	 21.8357 	 2.2712 	 18.9567 	 2.8667 	 37.0717 	 44.9255 	 18.1150 	 4.4000
  1.0000 	 1.3000 	 4.7964 	 21.4867 	 2.1077 	 21.4986 	 2.7664 	 39.4240 	 40.4440 	 17.9254 	 4.4000
  1.0000 	 1.4000 	 4.9252 	 21.2005 	 1.9658 	 24.1526 	 2.6842 	 41.5712 	 36.0489 	 17.4186 	 4.4000
  1.0000 	 1.5000 	 5.0368 	 20.9615 	 1.8414 	 26.9680 	 2.6160 	 43.5347 	 31.6701 	 16.5667 	 4.4000
  1.0000 	 1.6000 	 5.1345 	 20.7589 	 1.7310 	 30.0161 	 2.5588 	 45.3337 	 27.2113 	 15.3176 	 4.4000
  1.0000 	 1.7000 	 5.2207 	 20.5849 	 1.6323 	 33.4150 	 2.5104 	 46.9854 	 22.5193 	 13.5704 	 4.4000
  1.0000 	 1.0000 	 4.2020 	 23.2387 	 2.7456 	 13.9239 	 3.2016 	 31.1875 	 54.5680 	 17.2635 	 4.5000
  1.0000 	 1.1000 	 4.4200 	 22.6505 	 2.5141 	 16.3585 	 3.0418 	 34.0279 	 49.7378 	 17.6694 	 4.5000
  1.0000 	 1.2000 	 4.6016 	 22.1931 	 2.3192 	 18.8320 	 2.9143 	 36.6140 	 45.0951 	 17.7820 	 4.5000
  1.0000 	 1.3000 	 4.7554 	 21.8270 	 2.1525 	 21.3777 	 2.8112 	 38.9723 	 40.5911 	 17.5946 	 4.5000
  1.0000 	 1.4000 	 4.8871 	 21.5272 	 2.0079 	 24.0336 	 2.7265 	 41.1264 	 36.1692 	 17.0928 	 4.5000
  1.0000 	 1.5000 	 5.0013 	 21.2771 	 1.8811 	 26.8491 	 2.6563 	 43.0974 	 31.7588 	 16.2483 	 4.5000
  1.0000 	 1.6000 	 5.1012 	 21.0653 	 1.7688 	 29.8957 	 2.5974 	 44.9044 	 27.2617 	 15.0088 	 4.5000
  1.0000 	 1.7000 	 5.1894 	 20.8836 	 1.6683 	 33.2921 	 2.5475 	 46.5644 	 22.5203 	 13.2722 	 4.5000
