# d(e,e'p)n Central Kinematics Summary
# Beam Energy (Ei) = 2.200 GeV
# 4-Momentum Transfer (Q2) = 2.90 - 4.50 GeV (step: 0.10) 
# x-Bjorken (xbj) = 1.00 - 2.10 (step: 0.10) 
# Missing Momentum (Pr) = 0.00 - 1.10 GeV (step: 0.10) 
# Hadron Out-of-Plane Angle (phi) = 180 deg 
# thp = thq + thpq, phi = 180 ?  (q-vector scatters at smaller  angles than proton scattering angle)# 
# # 
# Tensor Polarized Deuterium: d(e,e'p) kinematics :
# 
# Header Definitions: 
# Pr   : Central Missing Momentum [GeV/c] 
# xbj  : Bjorken x  
# kf   : e- final momentum [GeV/c] 
# th_e : e- scattering angle [deg] 
# Pf   : final proton momentum [GeV/c] 
# th_p : proton scattering angle [deg] 
# q    : 3-momentum transfer [GeV] 
# th_q : relative angle between q-vector and +z (lab)  [deg] 
# th_nq: relative angle between q-vector and recoil neutron [deg] 
# th_pq: relative angle between q-vector and knocked-out proton [deg] 
# Q2   : 4-Momentum Transfer [GeV^2]  
# 
#! Pr[f,0]/ 	  xbj[f,1]/ 	 kf[f,2]/ 	 th_e[f,3]/ 	 Pf[f,4]/ 	 th_p[f,5]/ 	 q[f,6]/ 	 th_q[f,7]/ 	 th_nq[f,8]/ 	 th_pq[f,9]/ 	 Q2[f,10]/
  0.1000 	 1.0000 	 0.6546 	 90.3926 	 2.2915 	 14.0502 	 2.2996 	 16.5380 	 84.0901 	 2.4879 	 2.9000
  0.1000 	 1.1000 	 0.7951 	 80.1508 	 2.1389 	 18.8694 	 2.2077 	 20.7840 	 45.6087 	 1.9145 	 2.9000
  0.1000 	 1.0000 	 0.6013 	 97.6936 	 2.3490 	 12.2170 	 2.3571 	 14.6442 	 84.1366 	 2.4272 	 3.0000
  0.1000 	 1.1000 	 0.7467 	 85.0186 	 2.1917 	 17.3519 	 2.2610 	 19.2069 	 45.1898 	 1.8550 	 3.0000
  0.1000 	 1.0000 	 0.5480 	 106.5949 	 2.4063 	 10.1947 	 2.4143 	 12.5642 	 84.1804 	 2.3695 	 3.1000
  0.1000 	 1.1000 	 0.6982 	 90.5202 	 2.2443 	 15.7609 	 2.3142 	 17.5595 	 44.7819 	 1.7986 	 3.1000
  0.1000 	 1.0000 	 0.4947 	 118.0354 	 2.4634 	 7.8625 	 2.4714 	 10.1772 	 84.2218 	 2.3147 	 3.2000
  0.1000 	 1.1000 	 0.6498 	 96.8512 	 2.2967 	 14.0699 	 2.3671 	 15.8152 	 44.3845 	 1.7452 	 3.2000
  0.1000 	 1.0000 	 0.4414 	 134.3431 	 2.5203 	 4.9106 	 2.5283 	 7.1731 	 84.2609 	 2.2626 	 3.3000
  0.1000 	 1.1000 	 0.6013 	 104.3156 	 2.3490 	 12.2377 	 2.4199 	 13.9323 	 43.9973 	 1.6946 	 3.3000
  0.1000 	 1.0000 	 0.3882 	 172.2014 	 2.5771 	 -1.0455 	 2.5851 	 1.1674 	 84.2979 	 2.2128 	 3.4000
  0.1000 	 1.1000 	 0.5529 	 113.4321 	 2.4011 	 10.1931 	 2.4725 	 11.8395 	 43.6198 	 1.6464 	 3.4000
  0.1000 	 1.1000 	 0.5044 	 125.2362 	 2.4530 	 7.7908 	 2.5249 	 9.3915 	 43.2515 	 1.6007 	 3.5000
  0.1000 	 1.1000 	 0.4560 	 142.5921 	 2.5048 	 4.6133 	 2.5771 	 6.1703 	 42.8921 	 1.5571 	 3.6000
  0.2000 	 1.0000 	 0.6546 	 90.3926 	 2.2745 	 11.5657 	 2.2996 	 16.5380 	 80.2942 	 4.9723 	 2.9000
  0.2000 	 1.1000 	 0.7951 	 80.1508 	 2.1217 	 16.0019 	 2.2077 	 20.7840 	 62.1763 	 4.7821 	 2.9000
  0.2000 	 1.2000 	 0.9122 	 73.8920 	 1.9930 	 20.3227 	 2.1351 	 24.2338 	 42.8202 	 3.9111 	 2.9000
  0.2000 	 1.3000 	 1.0112 	 69.6208 	 1.8829 	 25.7347 	 2.0768 	 27.1576 	 13.5200 	 1.4229 	 2.9000
  0.2000 	 1.0000 	 0.6013 	 97.6936 	 2.3320 	 9.7936 	 2.3571 	 14.6442 	 80.3801 	 4.8506 	 3.0000
  0.2000 	 1.1000 	 0.7467 	 85.0186 	 2.1746 	 14.5456 	 2.2610 	 19.2069 	 62.0772 	 4.6613 	 3.0000
  0.2000 	 1.2000 	 0.8678 	 77.6266 	 2.0420 	 19.0347 	 2.1851 	 22.8236 	 42.4291 	 3.7889 	 3.0000
  0.2000 	 1.3000 	 0.9702 	 72.7062 	 1.9286 	 24.6731 	 2.1242 	 25.8556 	 11.4793 	 1.1826 	 3.0000
  0.2000 	 1.0000 	 0.5480 	 106.5949 	 2.3893 	 7.8292 	 2.4143 	 12.5642 	 80.4612 	 4.7350 	 3.1000
  0.2000 	 1.1000 	 0.6982 	 90.5202 	 2.2272 	 13.0128 	 2.3142 	 17.5595 	 61.9797 	 4.5467 	 3.1000
  0.2000 	 1.2000 	 0.8234 	 81.7032 	 2.0908 	 17.7060 	 2.2350 	 21.3792 	 42.0459 	 3.6732 	 3.1000
  0.2000 	 1.3000 	 0.9293 	 76.0064 	 1.9741 	 23.6201 	 2.1714 	 24.5355 	 9.0735 	 0.9154 	 3.1000
  0.2000 	 1.0000 	 0.4947 	 118.0354 	 2.4465 	 5.5520 	 2.4714 	 10.1772 	 80.5378 	 4.6252 	 3.2000
  0.2000 	 1.1000 	 0.6498 	 96.8512 	 2.2797 	 11.3773 	 2.3671 	 15.8152 	 61.8839 	 4.4379 	 3.2000
  0.2000 	 1.2000 	 0.7789 	 86.1962 	 2.1393 	 16.3259 	 2.2846 	 19.8894 	 41.6704 	 3.5635 	 3.2000
  0.2000 	 1.3000 	 0.8883 	 79.5581 	 2.0194 	 22.6115 	 2.2183 	 23.1911 	 5.8633 	 0.5797 	 3.2000
  0.2000 	 1.0000 	 0.4414 	 134.3431 	 2.5035 	 2.6525 	 2.5283 	 7.1731 	 80.6103 	 4.5206 	 3.3000
  0.2000 	 1.1000 	 0.6013 	 104.3156 	 2.3320 	 9.5979 	 2.4199 	 13.9323 	 61.7898 	 4.3343 	 3.3000
  0.2000 	 1.2000 	 0.7345 	 91.2060 	 2.1877 	 14.8800 	 2.3340 	 18.3392 	 41.3024 	 3.4593 	 3.3000
  0.2000 	 1.0000 	 0.3882 	 172.2014 	 2.5603 	 -3.2536 	 2.5851 	 1.1674 	 80.6790 	 4.4209 	 3.4000
  0.2000 	 1.1000 	 0.5529 	 113.4321 	 2.3841 	 7.6038 	 2.4725 	 11.8395 	 61.6975 	 4.2357 	 3.4000
  0.2000 	 1.2000 	 0.6901 	 96.8736 	 2.2360 	 13.3481 	 2.3832 	 16.7083 	 40.9417 	 3.3602 	 3.4000
  0.2000 	 1.1000 	 0.5044 	 125.2362 	 2.4361 	 5.2499 	 2.5249 	 9.3915 	 61.6069 	 4.1416 	 3.5000
  0.2000 	 1.2000 	 0.6457 	 103.4077 	 2.2841 	 11.7003 	 2.4322 	 14.9662 	 40.5881 	 3.2659 	 3.5000
  0.2000 	 1.1000 	 0.4560 	 142.5921 	 2.4880 	 2.1186 	 2.5771 	 6.1703 	 61.5180 	 4.0517 	 3.6000
  0.2000 	 1.2000 	 0.6013 	 111.1402 	 2.3320 	 9.8886 	 2.4811 	 13.0646 	 40.2412 	 3.1760 	 3.6000
  0.2000 	 1.2000 	 0.5569 	 120.6611 	 2.3798 	 7.8255 	 2.5298 	 10.9158 	 39.9009 	 3.0902 	 3.7000
  0.2000 	 1.2000 	 0.5125 	 133.2468 	 2.4275 	 5.3167 	 2.5783 	 8.3251 	 39.5671 	 3.0083 	 3.8000
  0.2000 	 1.2000 	 0.4681 	 153.3245 	 2.4750 	 1.6587 	 2.6267 	 4.5887 	 39.2394 	 2.9300 	 3.9000
  0.3000 	 1.0000 	 0.6546 	 90.3926 	 2.2467 	 9.0894 	 2.2996 	 16.5380 	 76.1286 	 7.4487 	 2.9000
  0.3000 	 1.1000 	 0.7951 	 80.1508 	 2.0936 	 13.3842 	 2.2077 	 20.7840 	 63.9997 	 7.3998 	 2.9000
  0.3000 	 1.2000 	 0.9122 	 73.8920 	 1.9646 	 17.3237 	 2.1351 	 24.2338 	 51.9876 	 6.9101 	 2.9000
  0.3000 	 1.3000 	 1.0112 	 69.6208 	 1.8542 	 21.2833 	 2.0768 	 27.1576 	 39.2398 	 5.8743 	 2.9000
  0.3000 	 1.4000 	 1.0961 	 66.5018 	 1.7585 	 25.7819 	 2.0294 	 29.6922 	 23.5618 	 3.9103 	 2.9000
  0.3000 	 1.0000 	 0.6013 	 97.6936 	 2.3043 	 7.3789 	 2.3571 	 14.6442 	 76.2557 	 7.2653 	 3.0000
  0.3000 	 1.1000 	 0.7467 	 85.0186 	 2.1466 	 11.9901 	 2.2610 	 19.2069 	 64.0092 	 7.2168 	 3.0000
  0.3000 	 1.2000 	 0.8678 	 77.6266 	 2.0137 	 16.0957 	 2.1851 	 22.8236 	 51.8482 	 6.7279 	 3.0000
  0.3000 	 1.3000 	 0.9702 	 72.7062 	 1.9000 	 20.1680 	 2.1242 	 25.8556 	 38.8787 	 5.6876 	 3.0000
  0.3000 	 1.4000 	 1.0581 	 69.1692 	 1.8015 	 24.7859 	 2.0746 	 28.4688 	 22.6896 	 3.6829 	 3.0000
  0.3000 	 1.0000 	 0.5480 	 106.5949 	 2.3617 	 5.4729 	 2.4143 	 12.5642 	 76.3756 	 7.0913 	 3.1000
  0.3000 	 1.1000 	 0.6982 	 90.5202 	 2.1993 	 10.5164 	 2.3142 	 17.5595 	 64.0156 	 7.0431 	 3.1000
  0.3000 	 1.2000 	 0.8234 	 81.7032 	 2.0626 	 14.8240 	 2.2350 	 21.3792 	 51.7100 	 6.5552 	 3.1000
  0.3000 	 1.3000 	 0.9293 	 76.0064 	 1.9456 	 19.0248 	 2.1714 	 24.5355 	 38.5220 	 5.5107 	 3.1000
  0.3000 	 1.4000 	 1.0200 	 71.9840 	 1.8444 	 23.7720 	 2.1195 	 27.2359 	 21.8048 	 3.4639 	 3.1000
  0.3000 	 1.0000 	 0.4947 	 118.0354 	 2.4190 	 3.2512 	 2.4714 	 10.1772 	 76.4889 	 6.9260 	 3.2000
  0.3000 	 1.1000 	 0.6498 	 96.8512 	 2.2519 	 8.9370 	 2.3671 	 15.8152 	 64.0194 	 6.8781 	 3.2000
  0.3000 	 1.2000 	 0.7789 	 86.1962 	 2.1113 	 13.4981 	 2.2846 	 19.8894 	 51.5731 	 6.3913 	 3.2000
  0.3000 	 1.3000 	 0.8883 	 79.5581 	 1.9911 	 17.8483 	 2.2183 	 23.1911 	 38.1697 	 5.3429 	 3.2000
  0.3000 	 1.4000 	 0.9820 	 74.9677 	 1.8870 	 22.7373 	 2.1642 	 25.9895 	 20.9053 	 3.2521 	 3.2000
  0.3000 	 1.0000 	 0.4414 	 134.3431 	 2.4761 	 0.4045 	 2.5283 	 7.1731 	 76.5962 	 6.7686 	 3.3000
  0.3000 	 1.1000 	 0.6013 	 104.3156 	 2.3043 	 7.2112 	 2.4199 	 13.9323 	 64.0208 	 6.7211 	 3.3000
  0.3000 	 1.2000 	 0.7345 	 91.2060 	 2.1598 	 12.1039 	 2.3340 	 18.3392 	 51.4376 	 6.2354 	 3.3000
  0.3000 	 1.3000 	 0.8473 	 83.4078 	 2.0363 	 16.6315 	 2.2649 	 21.8149 	 37.8220 	 5.1833 	 3.3000
  0.3000 	 1.4000 	 0.9439 	 78.1461 	 1.9294 	 21.6781 	 2.2086 	 24.7249 	 19.9883 	 3.0468 	 3.3000
  0.3000 	 1.0000 	 0.3882 	 172.2014 	 2.5330 	 -5.4513 	 2.5851 	 1.1674 	 76.6978 	 6.6187 	 3.4000
  0.3000 	 1.1000 	 0.5529 	 113.4321 	 2.3565 	 5.2681 	 2.4725 	 11.8395 	 64.0202 	 6.5714 	 3.4000
  0.3000 	 1.2000 	 0.6901 	 96.8736 	 2.2081 	 10.6214 	 2.3832 	 16.7083 	 51.3038 	 6.0869 	 3.4000
  0.3000 	 1.3000 	 0.8063 	 87.6153 	 2.0813 	 15.3657 	 2.3114 	 20.3972 	 37.4789 	 5.0315 	 3.4000
  0.3000 	 1.4000 	 0.9058 	 81.5505 	 1.9716 	 20.5898 	 2.2527 	 23.4366 	 19.0506 	 2.8468 	 3.4000
  0.3000 	 1.1000 	 0.5044 	 125.2362 	 2.4086 	 2.9628 	 2.5249 	 9.3915 	 64.0177 	 6.4286 	 3.5000
  0.3000 	 1.2000 	 0.6457 	 103.4077 	 2.2563 	 9.0208 	 2.4322 	 14.9662 	 51.1716 	 5.9454 	 3.5000
  0.3000 	 1.3000 	 0.7653 	 92.2594 	 2.1262 	 14.0391 	 2.3576 	 18.9260 	 37.1401 	 4.8869 	 3.5000
  0.3000 	 1.4000 	 0.8678 	 85.2201 	 2.0137 	 19.4668 	 2.2967 	 22.1180 	 18.0884 	 2.6512 	 3.5000
  0.3000 	 1.1000 	 0.4560 	 142.5921 	 2.4605 	 -0.1219 	 2.5771 	 6.1703 	 64.0137 	 6.2922 	 3.6000
  0.3000 	 1.2000 	 0.6013 	 111.1402 	 2.3043 	 7.2542 	 2.4811 	 13.0646 	 51.0411 	 5.8104 	 3.6000
  0.3000 	 1.3000 	 0.7243 	 97.4482 	 2.1709 	 12.6356 	 2.4037 	 17.3845 	 36.8059 	 4.7489 	 3.6000
  0.3000 	 1.4000 	 0.8297 	 89.2046 	 2.0556 	 18.3019 	 2.3405 	 20.7609 	 17.0967 	 2.4590 	 3.6000
  0.3000 	 1.2000 	 0.5569 	 120.6611 	 2.3522 	 5.2344 	 2.5298 	 10.9158 	 50.9125 	 5.6813 	 3.7000
  0.3000 	 1.3000 	 0.6833 	 103.3358 	 2.2155 	 11.1319 	 2.4496 	 15.7491 	 36.4760 	 4.6172 	 3.7000
  0.3000 	 1.4000 	 0.7916 	 93.5685 	 2.0974 	 17.0858 	 2.3840 	 19.3548 	 16.0691 	 2.2690 	 3.7000
  0.3000 	 1.2000 	 0.5125 	 133.2468 	 2.3999 	 2.7672 	 2.5783 	 8.3251 	 50.7857 	 5.5579 	 3.8000
  0.3000 	 1.3000 	 0.6423 	 110.1563 	 2.2600 	 9.4924 	 2.4953 	 13.9836 	 36.1504 	 4.4913 	 3.8000
  0.3000 	 1.4000 	 0.7536 	 98.3985 	 2.1390 	 15.8057 	 2.4274 	 17.8856 	 14.9977 	 2.0800 	 3.8000
  0.3000 	 1.2000 	 0.4681 	 153.3245 	 2.4475 	 -0.8510 	 2.6267 	 4.5887 	 50.6607 	 5.4397 	 3.9000
  0.3000 	 1.3000 	 0.6013 	 118.2968 	 2.3043 	 7.6568 	 2.5408 	 12.0275 	 35.8292 	 4.3708 	 3.9000
  0.3000 	 1.4000 	 0.7155 	 103.8151 	 2.1805 	 14.4437 	 2.4706 	 16.3339 	 13.8712 	 1.8902 	 3.9000
  0.3000 	 1.3000 	 0.5603 	 128.4943 	 2.3485 	 5.5075 	 2.5862 	 9.7629 	 35.5121 	 4.2554 	 4.0000
  0.3000 	 1.4000 	 0.6774 	 109.9952 	 2.2219 	 12.9733 	 2.5136 	 14.6708 	 12.6740 	 1.6976 	 4.0000
  0.3000 	 1.3000 	 0.5193 	 142.5855 	 2.3926 	 2.7421 	 2.6315 	 6.8868 	 35.1992 	 4.1447 	 4.1000
  0.3000 	 1.4000 	 0.6394 	 117.2180 	 2.2631 	 11.3514 	 2.5565 	 12.8506 	 11.3830 	 1.4992 	 4.1000
  0.3000 	 1.3000 	 0.4783 	 174.5831 	 2.4366 	 -3.0720 	 2.6766 	 0.9666 	 34.8903 	 4.0386 	 4.2000
  0.3000 	 1.4000 	 0.6013 	 125.9746 	 2.3043 	 9.5005 	 2.5992 	 10.7908 	 9.9604 	 1.2904 	 4.2000
  0.3000 	 1.4000 	 0.5633 	 137.3116 	 2.3453 	 7.2489 	 2.6418 	 8.3117 	 8.3381 	 1.0628 	 4.3000
  0.3000 	 1.4000 	 0.5252 	 154.6993 	 2.3863 	 3.9982 	 2.6842 	 4.7966 	 6.3632 	 0.7984 	 4.4000
  0.4000 	 1.0000 	 0.6546 	 90.3926 	 2.2088 	 6.6222 	 2.2996 	 16.5380 	 71.9714 	 9.9158 	 2.9000
  0.4000 	 1.1000 	 0.7951 	 80.1508 	 2.0553 	 10.8232 	 2.2077 	 20.7840 	 62.7212 	 9.9608 	 2.9000
  0.4000 	 1.2000 	 0.9122 	 73.8920 	 1.9259 	 14.5890 	 2.1351 	 24.2338 	 53.7694 	 9.6447 	 2.9000
  0.4000 	 1.3000 	 1.0112 	 69.6208 	 1.8150 	 18.2232 	 2.0768 	 27.1576 	 44.8052 	 8.9343 	 2.9000
  0.4000 	 1.4000 	 1.0961 	 66.5018 	 1.7189 	 21.9511 	 2.0294 	 29.6922 	 35.3674 	 7.7410 	 2.9000
  0.4000 	 1.5000 	 1.1697 	 64.1162 	 1.6346 	 26.1115 	 1.9903 	 31.9210 	 24.4332 	 5.8095 	 2.9000
  0.4000 	 1.6000 	 1.2341 	 62.2285 	 1.5599 	 32.5623 	 1.9578 	 33.9011 	 5.2274 	 1.3387 	 2.9000
  0.4000 	 1.0000 	 0.6013 	 97.6936 	 2.2666 	 4.9743 	 2.3571 	 14.6442 	 72.1404 	 9.6699 	 3.0000
  0.4000 	 1.1000 	 0.7467 	 85.0186 	 2.1084 	 9.4922 	 2.2610 	 19.2069 	 62.8050 	 9.7146 	 3.0000
  0.4000 	 1.2000 	 0.8678 	 77.6266 	 1.9752 	 13.4238 	 2.1851 	 22.8236 	 53.7518 	 9.3998 	 3.0000
  0.4000 	 1.3000 	 0.9702 	 72.7062 	 1.8611 	 17.1665 	 2.1242 	 25.8556 	 44.6594 	 8.6891 	 3.0000
  0.4000 	 1.4000 	 1.0581 	 69.1692 	 1.7621 	 20.9801 	 2.0746 	 28.4688 	 35.0399 	 7.4887 	 3.0000
  0.4000 	 1.5000 	 1.1342 	 66.4930 	 1.6754 	 25.2371 	 2.0337 	 30.7589 	 23.7681 	 5.5218 	 3.0000
  0.4000 	 1.0000 	 0.5480 	 106.5949 	 2.3242 	 3.1276 	 2.4143 	 12.5642 	 72.2997 	 9.4366 	 3.1000
  0.4000 	 1.1000 	 0.6982 	 90.5202 	 2.1614 	 8.0783 	 2.3142 	 17.5595 	 62.8822 	 9.4812 	 3.1000
  0.4000 	 1.2000 	 0.8234 	 81.7032 	 2.0242 	 12.2118 	 2.2350 	 21.3792 	 53.7305 	 9.1675 	 3.1000
  0.4000 	 1.3000 	 0.9293 	 76.0064 	 1.9069 	 16.0788 	 2.1714 	 24.5355 	 44.5127 	 8.4567 	 3.1000
  0.4000 	 1.4000 	 1.0200 	 71.9840 	 1.8051 	 19.9866 	 2.1195 	 27.2359 	 34.7129 	 7.2493 	 3.1000
  0.4000 	 1.5000 	 1.0987 	 68.9773 	 1.7160 	 24.3463 	 2.0768 	 29.5924 	 23.0948 	 5.2461 	 3.1000
  0.4000 	 1.0000 	 0.4947 	 118.0354 	 2.3815 	 0.9621 	 2.4714 	 10.1772 	 72.4503 	 9.2151 	 3.2000
  0.4000 	 1.1000 	 0.6498 	 96.8512 	 2.2141 	 6.5558 	 2.3671 	 15.8152 	 62.9534 	 9.2594 	 3.2000
  0.4000 	 1.2000 	 0.7789 	 86.1962 	 2.0730 	 10.9425 	 2.2846 	 19.8894 	 53.7059 	 8.9468 	 3.2000
  0.4000 	 1.3000 	 0.8883 	 79.5581 	 1.9524 	 14.9550 	 2.2183 	 23.1911 	 44.3653 	 8.2361 	 3.2000
  0.4000 	 1.4000 	 0.9820 	 74.9677 	 1.8479 	 18.9675 	 2.1642 	 25.9895 	 34.3868 	 7.0220 	 3.2000
  0.4000 	 1.5000 	 1.0632 	 71.5829 	 1.7564 	 23.4373 	 2.1195 	 28.4186 	 22.4125 	 4.9813 	 3.2000
  0.4000 	 1.0000 	 0.4414 	 134.3431 	 2.4387 	 -1.8311 	 2.5283 	 7.1731 	 72.5927 	 9.0043 	 3.3000
  0.4000 	 1.1000 	 0.6013 	 104.3156 	 2.2666 	 4.8839 	 2.4199 	 13.9323 	 63.0191 	 9.0483 	 3.3000
  0.4000 	 1.2000 	 0.7345 	 91.2060 	 2.1217 	 9.6023 	 2.3340 	 18.3392 	 53.6787 	 8.7370 	 3.3000
  0.4000 	 1.3000 	 0.8473 	 83.4078 	 1.9978 	 13.7884 	 2.2649 	 21.8149 	 44.2177 	 8.0264 	 3.3000
  0.4000 	 1.4000 	 0.9439 	 78.1461 	 1.8905 	 17.9191 	 2.2086 	 24.7249 	 34.0618 	 6.8058 	 3.3000
  0.4000 	 1.5000 	 1.0276 	 74.3258 	 1.7966 	 22.5079 	 2.1620 	 27.2343 	 21.7207 	 4.7264 	 3.3000
  0.4000 	 1.0000 	 0.3882 	 172.2014 	 2.4957 	 -7.6361 	 2.5851 	 1.1674 	 72.7277 	 8.8035 	 3.4000
  0.4000 	 1.1000 	 0.5529 	 113.4321 	 2.3189 	 2.9923 	 2.4725 	 11.8395 	 63.0799 	 8.8472 	 3.4000
  0.4000 	 1.2000 	 0.6901 	 96.8736 	 2.1702 	 8.1712 	 2.3832 	 16.7083 	 53.6490 	 8.5371 	 3.4000
  0.4000 	 1.3000 	 0.8063 	 87.6153 	 2.0430 	 12.5704 	 2.3114 	 20.3972 	 44.0702 	 7.8268 	 3.4000
  0.4000 	 1.4000 	 0.9058 	 81.5505 	 1.9329 	 16.8368 	 2.2527 	 23.4366 	 33.7382 	 6.5998 	 3.4000
  0.4000 	 1.5000 	 0.9921 	 77.2249 	 1.8365 	 21.5554 	 2.2043 	 26.0358 	 21.0185 	 4.4804 	 3.4000
  0.4000 	 1.1000 	 0.5044 	 125.2362 	 2.3711 	 0.7361 	 2.5249 	 9.3915 	 63.1363 	 8.6554 	 3.5000
  0.4000 	 1.2000 	 0.6457 	 103.4077 	 2.2185 	 6.6198 	 2.4322 	 14.9662 	 53.6174 	 8.3465 	 3.5000
  0.4000 	 1.3000 	 0.7653 	 92.2594 	 2.0880 	 11.2894 	 2.3576 	 18.9260 	 43.9230 	 7.6366 	 3.5000
  0.4000 	 1.4000 	 0.8678 	 85.2201 	 1.9752 	 15.7146 	 2.2967 	 22.1180 	 33.4162 	 6.4035 	 3.5000
  0.4000 	 1.5000 	 0.9566 	 80.3030 	 1.8763 	 20.5765 	 2.2464 	 24.8190 	 20.3048 	 4.2424 	 3.5000
  0.4000 	 1.1000 	 0.4560 	 142.5921 	 2.4232 	 -2.3018 	 2.5771 	 6.1703 	 63.1886 	 8.4721 	 3.6000
  0.4000 	 1.2000 	 0.6013 	 111.1402 	 2.2666 	 4.9001 	 2.4811 	 13.0646 	 53.5840 	 8.1645 	 3.6000
  0.4000 	 1.3000 	 0.7243 	 97.4482 	 2.1329 	 9.9295 	 2.4037 	 17.3845 	 43.7764 	 7.4550 	 3.6000
  0.4000 	 1.4000 	 0.8297 	 89.2046 	 2.0172 	 14.5450 	 2.3405 	 20.7609 	 33.0959 	 6.2160 	 3.6000
  0.4000 	 1.5000 	 0.9211 	 83.5873 	 1.9160 	 19.5673 	 2.2882 	 23.5788 	 19.5783 	 4.0116 	 3.6000
  0.4000 	 1.2000 	 0.5569 	 120.6611 	 2.3146 	 2.9253 	 2.5298 	 10.9158 	 53.5492 	 7.9905 	 3.7000
  0.4000 	 1.3000 	 0.6833 	 103.3358 	 2.1776 	 8.4675 	 2.4496 	 15.7491 	 43.6305 	 7.2816 	 3.7000
  0.4000 	 1.4000 	 0.7916 	 93.5685 	 2.0591 	 13.3180 	 2.3840 	 19.3548 	 32.7775 	 6.0368 	 3.7000
  0.4000 	 1.5000 	 0.8855 	 87.1119 	 1.9555 	 18.5224 	 2.3298 	 22.3094 	 18.8375 	 3.7870 	 3.7000
  0.4000 	 1.2000 	 0.5125 	 133.2468 	 2.3624 	 0.5011 	 2.5783 	 8.3251 	 53.5131 	 7.8239 	 3.8000
  0.4000 	 1.3000 	 0.6423 	 110.1563 	 2.2222 	 6.8679 	 2.4953 	 13.9836 	 43.4855 	 7.1157 	 3.8000
  0.4000 	 1.4000 	 0.7536 	 98.3985 	 2.1009 	 12.0203 	 2.4274 	 17.8856 	 32.4610 	 5.8653 	 3.8000
  0.4000 	 1.5000 	 0.8500 	 90.9192 	 1.9948 	 17.4356 	 2.3712 	 21.0035 	 18.0803 	 3.5679 	 3.8000
  0.4000 	 1.2000 	 0.4681 	 153.3245 	 2.4102 	 -3.0756 	 2.6267 	 4.5887 	 53.4760 	 7.6644 	 3.9000
  0.4000 	 1.3000 	 0.6013 	 118.2968 	 2.2666 	 5.0706 	 2.5408 	 12.0275 	 43.3415 	 6.9569 	 3.9000
  0.4000 	 1.4000 	 0.7155 	 103.8151 	 2.1425 	 10.6327 	 2.4706 	 16.3339 	 32.1465 	 5.7012 	 3.9000
  0.4000 	 1.5000 	 0.8145 	 95.0638 	 2.0340 	 16.2982 	 2.4124 	 19.6517 	 17.3045 	 3.3535 	 3.9000
  0.4000 	 1.3000 	 0.5603 	 128.4943 	 2.3109 	 2.9581 	 2.5862 	 9.7629 	 43.1986 	 6.8048 	 4.0000
  0.4000 	 1.4000 	 0.6774 	 109.9952 	 2.1840 	 9.1271 	 2.5136 	 14.6708 	 31.8342 	 5.5437 	 4.0000
  0.4000 	 1.5000 	 0.7789 	 99.6178 	 2.0730 	 15.0990 	 2.4534 	 18.2419 	 16.5073 	 3.1428 	 4.0000
  0.4000 	 1.3000 	 0.5193 	 142.5855 	 2.3551 	 0.2279 	 2.6315 	 6.8868 	 43.0569 	 6.6588 	 4.1000
  0.4000 	 1.4000 	 0.6394 	 117.2180 	 2.2253 	 7.4579 	 2.5565 	 12.8506 	 31.5240 	 5.3927 	 4.1000
  0.4000 	 1.5000 	 0.7434 	 104.6799 	 2.1120 	 13.8222 	 2.4943 	 16.7572 	 15.6852 	 2.9350 	 4.1000
  0.4000 	 1.3000 	 0.4783 	 174.5831 	 2.3992 	 -5.5522 	 2.6766 	 0.9666 	 42.9164 	 6.5187 	 4.2000
  0.4000 	 1.4000 	 0.6013 	 125.9746 	 2.2666 	 5.5432 	 2.5992 	 10.7908 	 31.2159 	 5.2477 	 4.2000
  0.4000 	 1.5000 	 0.7079 	 110.3912 	 2.1508 	 12.4447 	 2.5350 	 15.1737 	 14.8337 	 2.7290 	 4.2000
  0.4000 	 1.4000 	 0.5633 	 137.3116 	 2.3077 	 3.2035 	 2.6418 	 8.3117 	 30.9100 	 5.1083 	 4.3000
  0.4000 	 1.5000 	 0.6724 	 116.9670 	 2.1895 	 10.9306 	 2.5756 	 13.4543 	 13.9471 	 2.5237 	 4.3000
  0.4000 	 1.4000 	 0.5252 	 154.6993 	 2.3488 	 -0.1776 	 2.6842 	 4.7966 	 30.6063 	 4.9742 	 4.4000
  0.4000 	 1.5000 	 0.6368 	 124.7674 	 2.2281 	 9.2182 	 2.6160 	 11.5358 	 13.0179 	 2.3176 	 4.4000
  0.4000 	 1.5000 	 0.6013 	 134.4923 	 2.2666 	 7.1841 	 2.6563 	 9.2930 	 12.0359 	 2.1089 	 4.5000
  0.5000 	 1.0000 	 0.6546 	 90.3926 	 2.1619 	 4.1629 	 2.2996 	 16.5380 	 67.9143 	 12.3752 	 2.9000
  0.5000 	 1.1000 	 0.7951 	 80.1508 	 2.0078 	 8.2866 	 2.2077 	 20.7840 	 60.3361 	 12.4974 	 2.9000
  0.5000 	 1.2000 	 0.9122 	 73.8920 	 1.8777 	 11.9427 	 2.1351 	 24.2338 	 53.0790 	 12.2911 	 2.9000
  0.5000 	 1.3000 	 1.0112 	 69.6208 	 1.7663 	 15.4132 	 2.0768 	 27.1576 	 45.9761 	 11.7444 	 2.9000
  0.5000 	 1.4000 	 1.0961 	 66.5018 	 1.6696 	 18.8706 	 2.0294 	 29.6922 	 38.8234 	 10.8216 	 2.9000
  0.5000 	 1.5000 	 1.1697 	 64.1162 	 1.5846 	 22.4834 	 1.9903 	 31.9210 	 31.3100 	 9.4377 	 2.9000
  0.5000 	 1.6000 	 1.2341 	 62.2285 	 1.5093 	 26.5288 	 1.9578 	 33.9011 	 22.7883 	 7.3722 	 2.9000
  0.5000 	 1.7000 	 1.2909 	 60.6955 	 1.4420 	 32.0007 	 1.9304 	 35.6739 	 10.6472 	 3.6732 	 2.9000
  0.5000 	 1.0000 	 0.6013 	 97.6936 	 2.2198 	 2.5788 	 2.3571 	 14.6442 	 68.1258 	 12.0653 	 3.0000
  0.5000 	 1.1000 	 0.7467 	 85.0186 	 2.0611 	 7.0201 	 2.2610 	 19.2069 	 60.4822 	 12.1868 	 3.0000
  0.5000 	 1.2000 	 0.8678 	 77.6266 	 1.9273 	 10.8419 	 2.1851 	 22.8236 	 53.1491 	 11.9817 	 3.0000
  0.5000 	 1.3000 	 0.9702 	 72.7062 	 1.8126 	 14.4192 	 2.1242 	 25.8556 	 45.9557 	 11.4364 	 3.0000
  0.5000 	 1.4000 	 1.0581 	 69.1692 	 1.7131 	 17.9563 	 2.0746 	 28.4688 	 38.6898 	 10.5125 	 3.0000
  0.5000 	 1.5000 	 1.1342 	 66.4930 	 1.6258 	 21.6393 	 2.0337 	 30.7589 	 31.0207 	 9.1196 	 3.0000
  0.5000 	 1.6000 	 1.2008 	 64.3923 	 1.5484 	 25.7707 	 1.9996 	 32.7890 	 22.2334 	 7.0183 	 3.0000
  0.5000 	 1.7000 	 1.2596 	 62.6966 	 1.4792 	 31.5529 	 1.9709 	 34.6041 	 9.0602 	 3.0512 	 3.0000
  0.5000 	 1.0000 	 0.5480 	 106.5949 	 2.2776 	 0.7927 	 2.4143 	 12.5642 	 68.3252 	 11.7716 	 3.1000
  0.5000 	 1.1000 	 0.6982 	 90.5202 	 2.1142 	 5.6673 	 2.3142 	 17.5595 	 60.6185 	 11.8923 	 3.1000
  0.5000 	 1.2000 	 0.8234 	 81.7032 	 1.9765 	 9.6908 	 2.2350 	 21.3792 	 53.2115 	 11.6884 	 3.1000
  0.5000 	 1.3000 	 0.9293 	 76.0064 	 1.8586 	 13.3911 	 2.1714 	 24.5355 	 45.9295 	 11.1444 	 3.1000
  0.5000 	 1.4000 	 1.0200 	 71.9840 	 1.7564 	 17.0164 	 2.1195 	 27.2359 	 38.5521 	 10.2195 	 3.1000
  0.5000 	 1.5000 	 1.0987 	 68.9773 	 1.6666 	 20.7749 	 2.0768 	 29.5924 	 30.7274 	 8.8175 	 3.1000
  0.5000 	 1.6000 	 1.1675 	 66.6377 	 1.5872 	 24.9968 	 2.0411 	 31.6758 	 21.6665 	 6.6791 	 3.1000
  0.5000 	 1.7000 	 1.2283 	 64.7618 	 1.5162 	 31.1845 	 2.0110 	 33.5354 	 7.1455 	 2.3509 	 3.1000
  0.5000 	 1.0000 	 0.4947 	 118.0354 	 2.3351 	 -1.3155 	 2.4714 	 10.1772 	 68.5134 	 11.4927 	 3.2000
  0.5000 	 1.1000 	 0.6498 	 96.8512 	 2.1671 	 4.2025 	 2.3671 	 15.8152 	 60.7457 	 11.6126 	 3.2000
  0.5000 	 1.2000 	 0.7789 	 86.1962 	 2.0256 	 8.4795 	 2.2846 	 19.8894 	 53.2668 	 11.4099 	 3.2000
  0.5000 	 1.3000 	 0.8883 	 79.5581 	 1.9044 	 12.3239 	 2.2183 	 23.1911 	 45.8983 	 10.8673 	 3.2000
  0.5000 	 1.4000 	 0.9820 	 74.9677 	 1.7994 	 16.0481 	 2.1642 	 25.9895 	 38.4109 	 9.9413 	 3.2000
  0.5000 	 1.5000 	 1.0632 	 71.5829 	 1.7073 	 19.8883 	 2.1195 	 28.4186 	 30.4307 	 8.5303 	 3.2000
  0.5000 	 1.6000 	 1.1342 	 68.9744 	 1.6258 	 24.2062 	 2.0823 	 30.5593 	 21.0876 	 6.3531 	 3.2000
  0.5000 	 1.7000 	 1.1969 	 66.8978 	 1.5529 	 31.0163 	 2.0509 	 32.4659 	 4.5065 	 1.4496 	 3.2000
  0.5000 	 1.0000 	 0.4414 	 134.3431 	 2.3924 	 -4.0544 	 2.5283 	 7.1731 	 68.6914 	 11.2275 	 3.3000
  0.5000 	 1.1000 	 0.6013 	 104.3156 	 2.2198 	 2.5857 	 2.4199 	 13.9323 	 60.8647 	 11.3466 	 3.3000
  0.5000 	 1.2000 	 0.7345 	 91.2060 	 2.0744 	 7.1942 	 2.3340 	 18.3392 	 53.3159 	 11.1450 	 3.3000
  0.5000 	 1.3000 	 0.8473 	 83.4078 	 1.9500 	 11.2111 	 2.2649 	 21.8149 	 45.8627 	 10.6037 	 3.3000
  0.5000 	 1.4000 	 0.9439 	 78.1461 	 1.8422 	 15.0480 	 2.2086 	 24.7249 	 38.2669 	 9.6769 	 3.3000
  0.5000 	 1.5000 	 1.0276 	 74.3258 	 1.7477 	 18.9775 	 2.1620 	 27.2343 	 30.1314 	 8.2568 	 3.3000
  0.5000 	 1.6000 	 1.1009 	 71.4131 	 1.6641 	 23.3979 	 2.1232 	 29.4370 	 20.4965 	 6.0391 	 3.3000
  0.5000 	 1.0000 	 0.3882 	 172.2014 	 2.4496 	 -9.8076 	 2.5851 	 1.1674 	 68.8601 	 10.9750 	 3.4000
  0.5000 	 1.1000 	 0.5529 	 113.4321 	 2.2723 	 0.7463 	 2.4725 	 11.8395 	 60.9762 	 11.0932 	 3.4000
  0.5000 	 1.2000 	 0.6901 	 96.8736 	 2.1231 	 5.8156 	 2.3832 	 16.7083 	 53.3595 	 10.8927 	 3.4000
  0.5000 	 1.3000 	 0.8063 	 87.6153 	 1.9954 	 10.0444 	 2.3114 	 20.3972 	 45.8234 	 10.3528 	 3.4000
  0.5000 	 1.4000 	 0.9058 	 81.5505 	 1.8848 	 14.0114 	 2.2527 	 23.4366 	 38.1206 	 9.4252 	 3.4000
  0.5000 	 1.5000 	 0.9921 	 77.2249 	 1.7879 	 18.0398 	 2.2043 	 26.0358 	 29.8298 	 7.9961 	 3.4000
  0.5000 	 1.6000 	 1.0676 	 73.9664 	 1.7022 	 22.5701 	 2.1639 	 28.3061 	 19.8928 	 5.7360 	 3.4000
  0.5000 	 1.1000 	 0.5044 	 125.2362 	 2.3247 	 -1.4601 	 2.5249 	 9.3915 	 61.0809 	 10.8516 	 3.5000
  0.5000 	 1.2000 	 0.6457 	 103.4077 	 2.1715 	 4.3141 	 2.4322 	 14.9662 	 53.3980 	 10.6521 	 3.5000
  0.5000 	 1.3000 	 0.7653 	 92.2594 	 2.0406 	 8.8123 	 2.3576 	 18.9260 	 45.7808 	 10.1137 	 3.5000
  0.5000 	 1.4000 	 0.8678 	 85.2201 	 1.9273 	 12.9328 	 2.2967 	 22.1180 	 37.9726 	 9.1852 	 3.5000
  0.5000 	 1.5000 	 0.9566 	 80.3030 	 1.8280 	 17.0719 	 2.2464 	 24.8190 	 29.5264 	 7.7471 	 3.5000
  0.5000 	 1.6000 	 1.0343 	 76.6488 	 1.7402 	 21.7211 	 2.2043 	 27.1639 	 19.2759 	 5.4428 	 3.5000
  0.5000 	 1.1000 	 0.4560 	 142.5921 	 2.3768 	 -4.4505 	 2.5771 	 6.1703 	 61.1793 	 10.6208 	 3.6000
  0.5000 	 1.2000 	 0.6013 	 111.1402 	 2.2198 	 2.6422 	 2.4811 	 13.0646 	 53.4320 	 10.4224 	 3.6000
  0.5000 	 1.3000 	 0.7243 	 97.4482 	 2.0857 	 7.4992 	 2.4037 	 17.3845 	 45.7353 	 9.8854 	 3.6000
  0.5000 	 1.4000 	 0.8297 	 89.2046 	 1.9695 	 11.8047 	 2.3405 	 20.7609 	 37.8231 	 8.9562 	 3.6000
  0.5000 	 1.5000 	 0.9211 	 83.5873 	 1.8678 	 16.0697 	 2.2882 	 23.5788 	 29.2215 	 7.5091 	 3.6000
  0.5000 	 1.6000 	 1.0010 	 79.4773 	 1.7779 	 20.8485 	 2.2445 	 26.0069 	 18.6451 	 5.1584 	 3.6000
  0.5000 	 1.2000 	 0.5569 	 120.6611 	 2.2680 	 0.7129 	 2.5298 	 10.9158 	 53.4619 	 10.2028 	 3.7000
  0.5000 	 1.3000 	 0.6833 	 103.3358 	 2.1305 	 6.0819 	 2.4496 	 15.7491 	 45.6875 	 9.6672 	 3.7000
  0.5000 	 1.4000 	 0.7916 	 93.5685 	 2.0116 	 10.6174 	 2.3840 	 19.3548 	 37.6725 	 8.7374 	 3.7000
  0.5000 	 1.5000 	 0.8855 	 87.1119 	 1.9075 	 15.0280 	 2.3298 	 22.3094 	 28.9156 	 7.2814 	 3.7000
  0.5000 	 1.6000 	 0.9677 	 82.4723 	 1.8155 	 19.9494 	 2.2844 	 24.8313 	 17.9992 	 4.8819 	 3.7000
  0.5000 	 1.2000 	 0.5125 	 133.2468 	 2.3159 	 -1.6676 	 2.5783 	 8.3251 	 53.4882 	 9.9927 	 3.8000
  0.5000 	 1.3000 	 0.6423 	 110.1563 	 2.1753 	 4.5252 	 2.4953 	 13.9836 	 45.6375 	 9.4585 	 3.8000
  0.5000 	 1.4000 	 0.7536 	 98.3985 	 2.0535 	 9.3575 	 2.4274 	 17.8856 	 37.5212 	 8.5282 	 3.8000
  0.5000 	 1.5000 	 0.8500 	 90.9192 	 1.9470 	 13.9403 	 2.3712 	 21.0035 	 28.6088 	 7.0633 	 3.8000
  0.5000 	 1.6000 	 0.9344 	 85.6581 	 1.8529 	 19.0203 	 2.3242 	 23.6326 	 17.3370 	 4.6123 	 3.8000
  0.5000 	 1.2000 	 0.4681 	 153.3245 	 2.3638 	 -5.2026 	 2.6267 	 4.5887 	 53.5111 	 9.7913 	 3.9000
  0.5000 	 1.3000 	 0.6013 	 118.2968 	 2.2198 	 2.7689 	 2.5408 	 12.0275 	 45.5857 	 9.2586 	 3.9000
  0.5000 	 1.4000 	 0.7155 	 103.8151 	 2.0953 	 8.0061 	 2.4706 	 16.3339 	 37.3694 	 8.3278 	 3.9000
  0.5000 	 1.5000 	 0.8145 	 95.0638 	 1.9864 	 12.7977 	 2.4124 	 19.6517 	 28.3013 	 6.8541 	 3.9000
  0.5000 	 1.6000 	 0.9011 	 89.0649 	 1.8902 	 18.0567 	 2.3637 	 22.4053 	 16.6567 	 4.3486 	 3.9000
  0.5000 	 1.3000 	 0.5603 	 128.4943 	 2.2643 	 0.6959 	 2.5862 	 9.7629 	 45.5324 	 9.0670 	 4.0000
  0.5000 	 1.4000 	 0.6774 	 109.9952 	 2.1369 	 6.5350 	 2.5136 	 14.6708 	 37.2173 	 8.1358 	 4.0000
  0.5000 	 1.5000 	 0.7789 	 99.6178 	 2.0256 	 11.5886 	 2.4534 	 18.2419 	 27.9934 	 6.6533 	 4.0000
  0.5000 	 1.6000 	 0.8678 	 92.7297 	 1.9273 	 17.0530 	 2.4031 	 21.1428 	 15.9563 	 4.0898 	 4.0000
  0.5000 	 1.3000 	 0.5193 	 142.5855 	 2.3086 	 -1.9964 	 2.6315 	 6.8868 	 45.4779 	 8.8832 	 4.1000
  0.5000 	 1.4000 	 0.6394 	 117.2180 	 2.1784 	 4.8989 	 2.5565 	 12.8506 	 37.0652 	 7.9517 	 4.1000
  0.5000 	 1.5000 	 0.7434 	 104.6799 	 2.0647 	 10.2969 	 2.4943 	 16.7572 	 27.6853 	 6.4603 	 4.1000
  0.5000 	 1.6000 	 0.8345 	 96.7002 	 1.9642 	 16.0016 	 2.4423 	 19.8366 	 15.2332 	 3.8350 	 4.1000
  0.5000 	 1.3000 	 0.4783 	 174.5831 	 2.3528 	 -7.7400 	 2.6766 	 0.9666 	 45.4222 	 8.7066 	 4.2000
  0.5000 	 1.4000 	 0.6013 	 125.9746 	 2.2198 	 3.0159 	 2.5992 	 10.7908 	 36.9132 	 7.7749 	 4.2000
  0.5000 	 1.5000 	 0.7079 	 110.3912 	 2.1036 	 8.8989 	 2.5350 	 15.1737 	 27.3770 	 6.2748 	 4.2000
  0.5000 	 1.6000 	 0.8012 	 101.0384 	 2.0011 	 14.8928 	 2.4813 	 18.4758 	 14.4841 	 3.5830 	 4.2000
  0.5000 	 1.4000 	 0.5633 	 137.3116 	 2.2611 	 0.7066 	 2.6418 	 8.3117 	 36.7614 	 7.6051 	 4.3000
  0.5000 	 1.5000 	 0.6724 	 116.9670 	 2.1425 	 7.3580 	 2.5756 	 13.4543 	 27.0687 	 6.0963 	 4.3000
  0.5000 	 1.6000 	 0.7678 	 105.8277 	 2.0378 	 13.7131 	 2.5201 	 17.0456 	 13.7049 	 3.3326 	 4.3000
  0.5000 	 1.4000 	 0.5252 	 154.6993 	 2.3022 	 -2.6452 	 2.6842 	 4.7966 	 36.6101 	 7.4418 	 4.4000
  0.5000 	 1.5000 	 0.6368 	 124.7674 	 2.1812 	 5.6115 	 2.6160 	 11.5358 	 26.7605 	 5.9243 	 4.4000
  0.5000 	 1.6000 	 0.7345 	 111.1860 	 2.0744 	 12.4428 	 2.5588 	 15.5251 	 12.8901 	 3.0823 	 4.4000
  0.5000 	 1.5000 	 0.6013 	 134.4923 	 2.2198 	 3.5345 	 2.6563 	 9.2930 	 26.4524 	 5.7585 	 4.5000
  0.5000 	 1.6000 	 0.7012 	 117.2883 	 2.1109 	 11.0523 	 2.5974 	 13.8826 	 12.0326 	 2.8303 	 4.5000
  0.6000 	 1.0000 	 0.6546 	 90.3926 	 2.1067 	 1.7073 	 2.2996 	 16.5380 	 63.9927 	 14.8308 	 2.9000
  0.6000 	 1.1000 	 0.7951 	 80.1508 	 1.9519 	 5.7600 	 2.2077 	 20.7840 	 57.4902 	 15.0239 	 2.9000
  0.6000 	 1.2000 	 0.9122 	 73.8920 	 1.8211 	 9.3344 	 2.1351 	 24.2338 	 51.2996 	 14.8993 	 2.9000
  0.6000 	 1.3000 	 1.0112 	 69.6208 	 1.7089 	 12.7037 	 2.0768 	 27.1576 	 45.3101 	 14.4539 	 2.9000
  0.6000 	 1.4000 	 1.0961 	 66.5018 	 1.6114 	 16.0221 	 2.0294 	 29.6922 	 39.3983 	 13.6701 	 2.9000
  0.6000 	 1.5000 	 1.1697 	 64.1162 	 1.5256 	 19.4165 	 1.9903 	 31.9210 	 33.4044 	 12.5045 	 2.9000
  0.6000 	 1.6000 	 1.2341 	 62.2285 	 1.4495 	 23.0405 	 1.9578 	 33.9011 	 27.0774 	 10.8606 	 2.9000
  0.6000 	 1.7000 	 1.2909 	 60.6955 	 1.3813 	 27.1760 	 1.9304 	 35.6739 	 19.8896 	 8.4979 	 2.9000
  0.6000 	 1.8000 	 1.3414 	 59.4246 	 1.3198 	 32.8321 	 1.9071 	 37.2713 	 9.8030 	 4.4392 	 2.9000
  0.6000 	 1.0000 	 0.6013 	 97.6936 	 2.1649 	 0.1891 	 2.3571 	 14.6442 	 64.2476 	 14.4551 	 3.0000
  0.6000 	 1.1000 	 0.7467 	 85.0186 	 2.0055 	 4.5600 	 2.2610 	 19.2069 	 57.6936 	 14.6469 	 3.0000
  0.6000 	 1.2000 	 0.8678 	 77.6266 	 1.8710 	 8.3000 	 2.1851 	 22.8236 	 51.4435 	 14.5236 	 3.0000
  0.6000 	 1.3000 	 0.9702 	 72.7062 	 1.7556 	 11.7749 	 2.1242 	 25.8556 	 45.3853 	 14.0807 	 3.0000
  0.6000 	 1.4000 	 1.0581 	 69.1692 	 1.6553 	 15.1697 	 2.0746 	 28.4688 	 39.3920 	 13.2990 	 3.0000
  0.6000 	 1.5000 	 1.1342 	 66.4930 	 1.5672 	 18.6261 	 2.0337 	 30.7589 	 33.2972 	 12.1327 	 3.0000
  0.6000 	 1.6000 	 1.2008 	 64.3923 	 1.4890 	 22.3095 	 1.9996 	 32.7890 	 26.8324 	 10.4795 	 3.0000
  0.6000 	 1.7000 	 1.2596 	 62.6966 	 1.4191 	 26.5253 	 1.9709 	 34.6041 	 19.4135 	 8.0788 	 3.0000
  0.6000 	 1.8000 	 1.3118 	 61.2977 	 1.3560 	 32.4846 	 1.9465 	 36.2381 	 8.5081 	 3.7535 	 3.0000
  0.6000 	 1.0000 	 0.5480 	 106.5949 	 2.2229 	 -1.5350 	 2.4143 	 12.5642 	 64.4876 	 14.0992 	 3.1000
  0.6000 	 1.1000 	 0.6982 	 90.5202 	 2.0589 	 3.2699 	 2.3142 	 17.5595 	 57.8838 	 14.2896 	 3.1000
  0.6000 	 1.2000 	 0.8234 	 81.7032 	 1.9205 	 7.2117 	 2.2350 	 21.3792 	 51.5759 	 14.1675 	 3.1000
  0.6000 	 1.3000 	 0.9293 	 76.0064 	 1.8019 	 10.8086 	 2.1714 	 24.5355 	 45.4502 	 13.7270 	 3.1000
  0.6000 	 1.4000 	 1.0200 	 71.9840 	 1.6989 	 14.2886 	 2.1195 	 27.2359 	 39.3769 	 12.9473 	 3.1000
  0.6000 	 1.5000 	 1.0987 	 68.9773 	 1.6085 	 17.8123 	 2.0768 	 29.5924 	 33.1817 	 11.7801 	 3.1000
  0.6000 	 1.6000 	 1.1675 	 66.6377 	 1.5282 	 21.5589 	 2.0411 	 31.6758 	 26.5780 	 10.1169 	 3.1000
  0.6000 	 1.7000 	 1.2283 	 64.7618 	 1.4565 	 25.8599 	 2.0110 	 33.5354 	 18.9186 	 7.6755 	 3.1000
  0.6000 	 1.8000 	 1.2822 	 63.2220 	 1.3919 	 32.2105 	 1.9855 	 35.2075 	 6.9662 	 2.9970 	 3.1000
  0.6000 	 1.0000 	 0.4947 	 118.0354 	 2.2806 	 -3.5843 	 2.4714 	 10.1772 	 64.7141 	 13.7615 	 3.2000
  0.6000 	 1.1000 	 0.6498 	 96.8512 	 2.1120 	 1.8646 	 2.3671 	 15.8152 	 58.0621 	 13.9505 	 3.2000
  0.6000 	 1.2000 	 0.7789 	 86.1962 	 1.9698 	 6.0599 	 2.2846 	 19.8894 	 51.6978 	 13.8295 	 3.2000
  0.6000 	 1.3000 	 0.8883 	 79.5581 	 1.8480 	 9.7999 	 2.2183 	 23.1911 	 45.5062 	 13.3912 	 3.2000
  0.6000 	 1.4000 	 0.9820 	 74.9677 	 1.7423 	 13.3760 	 2.1642 	 25.9895 	 39.3538 	 12.6135 	 3.2000
  0.6000 	 1.5000 	 1.0632 	 71.5829 	 1.6495 	 16.9735 	 2.1195 	 28.4186 	 33.0589 	 11.4451 	 3.2000
  0.6000 	 1.6000 	 1.1342 	 68.9744 	 1.5672 	 20.7878 	 2.0823 	 30.5593 	 26.3151 	 9.7715 	 3.2000
  0.6000 	 1.7000 	 1.1969 	 66.8978 	 1.4937 	 25.1794 	 2.0509 	 32.4659 	 18.4053 	 7.2865 	 3.2000
  0.6000 	 1.8000 	 1.2526 	 65.2030 	 1.4274 	 32.0959 	 2.0242 	 34.1779 	 4.9581 	 2.0819 	 3.2000
  0.6000 	 1.0000 	 0.4414 	 134.3431 	 2.3381 	 -6.2675 	 2.5283 	 7.1731 	 64.9282 	 13.4406 	 3.3000
  0.6000 	 1.1000 	 0.6013 	 104.3156 	 2.1649 	 0.3041 	 2.4199 	 13.9323 	 58.2294 	 13.6282 	 3.3000
  0.6000 	 1.2000 	 0.7345 	 91.2060 	 2.0189 	 4.8311 	 2.3340 	 18.3392 	 51.8102 	 13.5082 	 3.3000
  0.6000 	 1.3000 	 0.8473 	 83.4078 	 1.8939 	 8.7428 	 2.2649 	 21.8149 	 45.5541 	 13.0721 	 3.3000
  0.6000 	 1.4000 	 0.9439 	 78.1461 	 1.7854 	 12.4288 	 2.2086 	 24.7249 	 39.3239 	 12.2961 	 3.3000
  0.6000 	 1.5000 	 1.0276 	 74.3258 	 1.6902 	 16.1079 	 2.1620 	 27.2343 	 32.9299 	 11.1264 	 3.3000
  0.6000 	 1.6000 	 1.1009 	 71.4131 	 1.6059 	 19.9950 	 2.1232 	 29.4370 	 26.0449 	 9.4420 	 3.3000
  0.6000 	 1.7000 	 1.1656 	 69.1127 	 1.5305 	 24.4834 	 2.0905 	 31.3938 	 17.8736 	 6.9104 	 3.3000
  0.6000 	 1.8000 	 1.2230 	 67.2465 	 1.4627 	 32.8292 	 2.0626 	 33.1477 	 0.7765 	 0.3185 	 3.3000
  0.6000 	 1.0000 	 0.3882 	 172.2014 	 2.3955 	 -11.9678 	 2.5851 	 1.1674 	 65.1310 	 13.1351 	 3.4000
  0.6000 	 1.1000 	 0.5529 	 113.4321 	 2.2176 	 -1.4818 	 2.4725 	 11.8395 	 58.3869 	 13.3213 	 3.4000
  0.6000 	 1.2000 	 0.6901 	 96.8736 	 2.0678 	 3.5061 	 2.3832 	 16.7083 	 51.9142 	 13.2022 	 3.4000
  0.6000 	 1.3000 	 0.8063 	 87.6153 	 1.9395 	 7.6290 	 2.3114 	 20.3972 	 45.5948 	 12.7683 	 3.4000
  0.6000 	 1.4000 	 0.9058 	 81.5505 	 1.8283 	 11.4427 	 2.2527 	 23.4366 	 39.2880 	 11.9939 	 3.4000
  0.6000 	 1.5000 	 0.9921 	 77.2249 	 1.7307 	 15.2130 	 2.2043 	 26.0358 	 32.7954 	 10.8228 	 3.4000
  0.6000 	 1.6000 	 1.0676 	 73.9664 	 1.6444 	 19.1790 	 2.1639 	 28.3061 	 25.7680 	 9.1272 	 3.4000
  0.6000 	 1.7000 	 1.1342 	 71.4151 	 1.5672 	 23.7710 	 2.1298 	 30.3168 	 17.3231 	 6.5458 	 3.4000
  0.6000 	 1.1000 	 0.5044 	 125.2362 	 2.2701 	 -3.6373 	 2.5249 	 9.3915 	 58.5352 	 13.0287 	 3.5000
  0.6000 	 1.2000 	 0.6457 	 103.4077 	 2.1164 	 2.0557 	 2.4322 	 14.9662 	 52.0104 	 12.9106 	 3.5000
  0.6000 	 1.3000 	 0.7653 	 92.2594 	 1.9849 	 6.4474 	 2.3576 	 18.9260 	 45.6291 	 12.4786 	 3.5000
  0.6000 	 1.4000 	 0.8678 	 85.2201 	 1.8710 	 10.4121 	 2.2967 	 22.1180 	 39.2467 	 11.7059 	 3.5000
  0.6000 	 1.5000 	 0.9566 	 80.3030 	 1.7710 	 14.2857 	 2.2464 	 24.8190 	 32.6562 	 10.5333 	 3.5000
  0.6000 	 1.6000 	 1.0343 	 76.6488 	 1.6826 	 18.3379 	 2.2043 	 27.1639 	 25.4853 	 8.8260 	 3.5000
  0.6000 	 1.7000 	 1.1029 	 73.8151 	 1.6036 	 23.0414 	 2.1688 	 29.2328 	 16.7533 	 6.1914 	 3.5000
  0.6000 	 1.1000 	 0.4560 	 142.5921 	 2.3225 	 -6.5792 	 2.5771 	 6.1703 	 58.6752 	 12.7495 	 3.6000
  0.6000 	 1.2000 	 0.6013 	 111.1402 	 2.1649 	 0.4324 	 2.4811 	 13.0646 	 52.0996 	 12.6322 	 3.6000
  0.6000 	 1.3000 	 0.7243 	 97.4482 	 2.0302 	 5.1823 	 2.4037 	 17.3845 	 45.6576 	 12.2022 	 3.6000
  0.6000 	 1.4000 	 0.8297 	 89.2046 	 1.9134 	 9.3299 	 2.3405 	 20.7609 	 39.2007 	 11.4311 	 3.6000
  0.6000 	 1.5000 	 0.9211 	 83.5873 	 1.8111 	 13.3220 	 2.2882 	 23.5788 	 32.5130 	 10.2568 	 3.6000
  0.6000 	 1.6000 	 1.0010 	 79.4773 	 1.7206 	 17.4693 	 2.2445 	 26.0069 	 25.1973 	 8.5376 	 3.6000
  0.6000 	 1.7000 	 1.0715 	 76.3242 	 1.6398 	 22.2933 	 2.2076 	 28.1393 	 16.1633 	 5.8460 	 3.6000
  0.6000 	 1.2000 	 0.5569 	 120.6611 	 2.2132 	 -1.4503 	 2.5298 	 10.9158 	 52.1823 	 12.3661 	 3.7000
  0.6000 	 1.3000 	 0.6833 	 103.3358 	 2.0753 	 3.8110 	 2.4496 	 15.7491 	 45.6809 	 11.9381 	 3.7000
  0.6000 	 1.4000 	 0.7916 	 93.5685 	 1.9558 	 8.1864 	 2.3840 	 19.3548 	 39.1506 	 11.1684 	 3.7000
  0.6000 	 1.5000 	 0.8855 	 87.1119 	 1.8511 	 12.3169 	 2.3298 	 22.3094 	 32.3663 	 9.9926 	 3.7000
  0.6000 	 1.6000 	 0.9677 	 82.4723 	 1.7585 	 16.5702 	 2.2844 	 24.8313 	 24.9045 	 8.2611 	 3.7000
  0.6000 	 1.7000 	 1.0402 	 78.9558 	 1.6759 	 21.5253 	 2.2462 	 27.0336 	 15.5518 	 5.5083 	 3.7000
  0.6000 	 1.2000 	 0.5125 	 133.2468 	 2.2614 	 -3.7864 	 2.5783 	 8.3251 	 52.2592 	 12.1115 	 3.8000
  0.6000 	 1.3000 	 0.6423 	 110.1563 	 2.1202 	 2.2983 	 2.4953 	 13.9836 	 45.6995 	 11.6854 	 3.8000
  0.6000 	 1.4000 	 0.7536 	 98.3985 	 1.9979 	 6.9684 	 2.4274 	 17.8856 	 39.0969 	 10.9172 	 3.8000
  0.6000 	 1.5000 	 0.8500 	 90.9192 	 1.8908 	 11.2638 	 2.3712 	 21.0035 	 32.2166 	 9.7397 	 3.8000
  0.6000 	 1.6000 	 0.9344 	 85.6581 	 1.7961 	 15.6369 	 2.3242 	 23.6326 	 24.6075 	 7.9957 	 3.8000
  0.6000 	 1.7000 	 1.0088 	 81.7254 	 1.7117 	 20.7356 	 2.2845 	 25.9126 	 14.9170 	 5.1770 	 3.8000
  0.6000 	 1.2000 	 0.4681 	 153.3245 	 2.3094 	 -7.2789 	 2.6267 	 4.5887 	 52.3307 	 11.8677 	 3.9000
  0.6000 	 1.3000 	 0.6013 	 118.2968 	 2.1649 	 0.5842 	 2.5408 	 12.0275 	 45.7139 	 11.4434 	 3.9000
  0.6000 	 1.4000 	 0.7155 	 103.8151 	 2.0399 	 5.6572 	 2.4706 	 16.3339 	 39.0400 	 10.6767 	 3.9000
  0.6000 	 1.5000 	 0.8145 	 95.0638 	 1.9304 	 10.1543 	 2.4124 	 19.6517 	 32.0643 	 9.4975 	 3.9000
  0.6000 	 1.6000 	 0.9011 	 89.0649 	 1.8336 	 14.6646 	 2.3637 	 22.4053 	 24.3065 	 7.7407 	 3.9000
  0.6000 	 1.7000 	 0.9775 	 84.6515 	 1.7474 	 19.9218 	 2.3226 	 24.7727 	 14.2567 	 4.8508 	 3.9000
  0.6000 	 1.3000 	 0.5603 	 128.4943 	 2.2095 	 -1.4485 	 2.5862 	 9.7629 	 45.7245 	 11.2114 	 4.0000
  0.6000 	 1.4000 	 0.6774 	 109.9952 	 2.0817 	 4.2247 	 2.5136 	 14.6708 	 38.9804 	 10.4461 	 4.0000
  0.6000 	 1.5000 	 0.7789 	 99.6178 	 1.9698 	 8.9766 	 2.4534 	 18.2419 	 31.9098 	 9.2652 	 4.0000
  0.6000 	 1.6000 	 0.8678 	 92.7297 	 1.8710 	 13.6474 	 2.4031 	 21.1428 	 24.0019 	 7.4954 	 4.0000
  0.6000 	 1.7000 	 0.9461 	 87.7564 	 1.7829 	 19.0814 	 2.3605 	 23.6096 	 13.5677 	 4.5282 	 4.0000
  0.6000 	 1.3000 	 0.5193 	 142.5855 	 2.2540 	 -4.1020 	 2.6315 	 6.8868 	 45.7317 	 10.9888 	 4.1000
  0.6000 	 1.4000 	 0.6394 	 117.2180 	 2.1234 	 2.6256 	 2.5565 	 12.8506 	 38.9183 	 10.2250 	 4.1000
  0.6000 	 1.5000 	 0.7434 	 104.6799 	 2.0091 	 7.7148 	 2.4943 	 16.7572 	 31.7535 	 9.0424 	 4.1000
  0.6000 	 1.6000 	 0.8345 	 96.7002 	 1.9081 	 12.5774 	 2.4423 	 19.8366 	 23.6939 	 7.2592 	 4.1000
  0.6000 	 1.7000 	 0.9148 	 91.0670 	 1.8182 	 18.2108 	 2.3983 	 22.4183 	 12.8463 	 4.2076 	 4.1000
  0.6000 	 1.3000 	 0.4783 	 174.5831 	 2.2983 	 -9.8084 	 2.6766 	 0.9666 	 45.7357 	 10.7750 	 4.2000
  0.6000 	 1.4000 	 0.6013 	 125.9746 	 2.1649 	 0.7782 	 2.5992 	 10.7908 	 38.8541 	 10.0126 	 4.2000
  0.6000 	 1.5000 	 0.7079 	 110.3912 	 2.0482 	 6.3454 	 2.5350 	 15.1737 	 31.5957 	 8.8284 	 4.2000
  0.6000 	 1.6000 	 0.8012 	 101.0384 	 1.9452 	 11.4442 	 2.4813 	 18.4758 	 23.3829 	 7.0316 	 4.2000
  0.6000 	 1.7000 	 0.8834 	 94.6168 	 1.8534 	 17.3057 	 2.4358 	 21.1927 	 12.0870 	 3.8869 	 4.2000
  0.6000 	 1.4000 	 0.5633 	 137.3116 	 2.2063 	 -1.4968 	 2.6418 	 8.3117 	 38.7880 	 9.8086 	 4.3000
  0.6000 	 1.5000 	 0.6724 	 116.9670 	 2.0872 	 4.8317 	 2.5756 	 13.4543 	 31.4366 	 8.6226 	 4.3000
  0.6000 	 1.6000 	 0.7678 	 105.8277 	 1.9821 	 10.2335 	 2.5201 	 17.0456 	 23.0691 	 6.8121 	 4.3000
  0.6000 	 1.7000 	 0.8521 	 98.4480 	 1.8885 	 16.3609 	 2.4732 	 19.9248 	 11.2830 	 3.5640 	 4.3000
  0.6000 	 1.4000 	 0.5252 	 154.6993 	 2.2476 	 -4.8157 	 2.6842 	 4.7966 	 38.7203 	 9.6123 	 4.4000
  0.6000 	 1.5000 	 0.6368 	 124.7674 	 2.1261 	 3.1111 	 2.6160 	 11.5358 	 31.2764 	 8.4247 	 4.4000
  0.6000 	 1.6000 	 0.7345 	 111.1860 	 2.0189 	 8.9249 	 2.5588 	 15.5251 	 22.7525 	 6.6001 	 4.4000
  0.6000 	 1.7000 	 0.8207 	 102.6155 	 1.9234 	 15.3692 	 2.5104 	 18.6048 	 10.4242 	 3.2356 	 4.4000
  0.6000 	 1.5000 	 0.6013 	 134.4923 	 2.1649 	 1.0588 	 2.6563 	 9.2930 	 31.1155 	 8.2342 	 4.5000
  0.6000 	 1.6000 	 0.7012 	 117.2883 	 2.0556 	 7.4873 	 2.5974 	 13.8826 	 22.4333 	 6.3953 	 4.5000
  0.6000 	 1.7000 	 0.7894 	 107.1924 	 1.9582 	 14.3214 	 2.5475 	 17.2190 	 9.4963 	 2.8976 	 4.5000
  0.7000 	 1.0000 	 0.6546 	 90.3926 	 2.0443 	 -0.7511 	 2.2996 	 16.5380 	 60.2197 	 17.2891 	 2.9000
  0.7000 	 1.1000 	 0.7951 	 80.1508 	 1.8886 	 3.2321 	 2.2077 	 20.7840 	 54.4536 	 17.5518 	 2.9000
  0.7000 	 1.2000 	 0.9122 	 73.8920 	 1.7569 	 6.7391 	 2.1351 	 24.2338 	 48.9838 	 17.4947 	 2.9000
  0.7000 	 1.3000 	 1.0112 	 69.6208 	 1.6438 	 10.0389 	 2.0768 	 27.1576 	 43.7264 	 17.1187 	 2.9000
  0.7000 	 1.4000 	 1.0961 	 66.5018 	 1.5453 	 13.2787 	 2.0294 	 29.6922 	 38.5920 	 16.4135 	 2.9000
  0.7000 	 1.5000 	 1.1697 	 64.1162 	 1.4585 	 16.5704 	 1.9903 	 31.9210 	 33.4743 	 15.3506 	 2.9000
  0.7000 	 1.6000 	 1.2341 	 62.2285 	 1.3813 	 20.0330 	 1.9578 	 33.9011 	 28.2272 	 13.8681 	 2.9000
  0.7000 	 1.7000 	 1.2909 	 60.6955 	 1.3120 	 23.8406 	 1.9304 	 35.6739 	 22.6040 	 11.8333 	 2.9000
  0.7000 	 1.8000 	 1.3414 	 59.4246 	 1.2494 	 28.3665 	 1.9071 	 37.2713 	 16.0388 	 8.9048 	 2.9000
  0.7000 	 1.0000 	 0.6013 	 97.6936 	 2.1028 	 -2.2010 	 2.3571 	 14.6442 	 60.5189 	 16.8451 	 3.0000
  0.7000 	 1.1000 	 0.7467 	 85.0186 	 1.9426 	 2.1011 	 2.2610 	 19.2069 	 54.7121 	 17.1057 	 3.0000
  0.7000 	 1.2000 	 0.8678 	 77.6266 	 1.8071 	 5.7737 	 2.1851 	 22.8236 	 49.1953 	 17.0499 	 3.0000
  0.7000 	 1.3000 	 0.9702 	 72.7062 	 1.6908 	 9.1780 	 2.1242 	 25.8556 	 43.8842 	 16.6776 	 3.0000
  0.7000 	 1.4000 	 1.0581 	 69.1692 	 1.5896 	 12.4913 	 2.0746 	 28.4688 	 38.6882 	 15.9775 	 3.0000
  0.7000 	 1.5000 	 1.1342 	 66.4930 	 1.5005 	 15.8393 	 2.0337 	 30.7589 	 33.4980 	 14.9196 	 3.0000
  0.7000 	 1.6000 	 1.2008 	 64.3923 	 1.4214 	 19.3492 	 1.9996 	 32.7890 	 28.1605 	 13.4398 	 3.0000
  0.7000 	 1.7000 	 1.2596 	 62.6966 	 1.3504 	 23.2051 	 1.9709 	 34.6041 	 22.4125 	 11.3990 	 3.0000
  0.7000 	 1.8000 	 1.3118 	 61.2977 	 1.2863 	 27.8085 	 1.9465 	 36.2381 	 15.6267 	 8.4296 	 3.0000
  0.7000 	 1.0000 	 0.5480 	 106.5949 	 2.1610 	 -3.8607 	 2.4143 	 12.5642 	 60.8004 	 16.4249 	 3.1000
  0.7000 	 1.1000 	 0.6982 	 90.5202 	 1.9962 	 0.8762 	 2.3142 	 17.5595 	 54.9542 	 16.6834 	 3.1000
  0.7000 	 1.2000 	 0.8234 	 81.7032 	 1.8570 	 4.7505 	 2.2350 	 21.3792 	 49.3914 	 16.6287 	 3.1000
  0.7000 	 1.3000 	 0.9293 	 76.0064 	 1.7376 	 8.2758 	 2.1714 	 24.5355 	 44.0276 	 16.2598 	 3.1000
  0.7000 	 1.4000 	 1.0200 	 71.9840 	 1.6337 	 11.6716 	 2.1195 	 27.2359 	 38.7707 	 15.5643 	 3.1000
  0.7000 	 1.5000 	 1.0987 	 68.9773 	 1.5423 	 15.0816 	 2.0768 	 29.5924 	 33.5082 	 14.5108 	 3.1000
  0.7000 	 1.6000 	 1.1675 	 66.6377 	 1.4611 	 18.6431 	 2.0411 	 31.6758 	 28.0800 	 13.0327 	 3.1000
  0.7000 	 1.7000 	 1.2283 	 64.7618 	 1.3884 	 22.5513 	 2.0110 	 33.5354 	 22.2044 	 10.9841 	 3.1000
  0.7000 	 1.8000 	 1.2822 	 63.2220 	 1.3227 	 27.2397 	 1.9855 	 35.2075 	 15.1847 	 7.9678 	 3.1000
  0.7000 	 1.0000 	 0.4947 	 118.0354 	 2.2190 	 -5.8492 	 2.4714 	 10.1772 	 61.0660 	 16.0264 	 3.2000
  0.7000 	 1.1000 	 0.6498 	 96.8512 	 2.0496 	 -0.4676 	 2.3671 	 15.8152 	 55.1813 	 16.2828 	 3.2000
  0.7000 	 1.2000 	 0.7789 	 86.1962 	 1.9066 	 3.6602 	 2.2846 	 19.8894 	 49.5736 	 16.2291 	 3.2000
  0.7000 	 1.3000 	 0.8883 	 79.5581 	 1.7840 	 7.3278 	 2.2183 	 23.1911 	 44.1580 	 15.8634 	 3.2000
  0.7000 	 1.4000 	 0.9820 	 74.9677 	 1.6774 	 10.8173 	 2.1642 	 25.9895 	 38.8410 	 15.1721 	 3.2000
  0.7000 	 1.5000 	 1.0632 	 71.5829 	 1.5837 	 14.2960 	 2.1195 	 28.4186 	 33.5067 	 14.1226 	 3.2000
  0.7000 	 1.6000 	 1.1342 	 68.9744 	 1.5005 	 17.9139 	 2.0823 	 30.5593 	 27.9873 	 12.6454 	 3.2000
  0.7000 	 1.7000 	 1.1969 	 66.8978 	 1.4261 	 21.8787 	 2.0509 	 32.4659 	 21.9815 	 10.5872 	 3.2000
  0.7000 	 1.8000 	 1.2526 	 65.2030 	 1.3589 	 26.6600 	 2.0242 	 34.1779 	 14.7131 	 7.5178 	 3.2000
  0.7000 	 1.0000 	 0.4414 	 134.3431 	 2.2767 	 -8.4749 	 2.5283 	 7.1731 	 61.3168 	 15.6480 	 3.3000
  0.7000 	 1.1000 	 0.6013 	 104.3156 	 2.1028 	 -1.9699 	 2.4199 	 13.9323 	 55.3949 	 15.9022 	 3.3000
  0.7000 	 1.2000 	 0.7345 	 91.2060 	 1.9560 	 2.4898 	 2.3340 	 18.3392 	 49.7433 	 15.8495 	 3.3000
  0.7000 	 1.3000 	 0.8473 	 83.4078 	 1.8302 	 6.3282 	 2.2649 	 21.8149 	 44.2769 	 15.4867 	 3.3000
  0.7000 	 1.4000 	 0.9439 	 78.1461 	 1.7209 	 9.9255 	 2.2086 	 24.7249 	 38.9004 	 14.7994 	 3.3000
  0.7000 	 1.5000 	 1.0276 	 74.3258 	 1.6249 	 13.4810 	 2.1620 	 27.2343 	 33.4946 	 13.7533 	 3.3000
  0.7000 	 1.6000 	 1.1009 	 71.4131 	 1.5397 	 17.1607 	 2.1232 	 29.4370 	 27.8838 	 12.2762 	 3.3000
  0.7000 	 1.7000 	 1.1656 	 69.1127 	 1.4634 	 21.1866 	 2.0905 	 31.3938 	 21.7451 	 10.2072 	 3.3000
  0.7000 	 1.8000 	 1.2230 	 67.2465 	 1.3947 	 26.0696 	 2.0626 	 33.1477 	 14.2119 	 7.0780 	 3.3000
  0.7000 	 1.0000 	 0.3882 	 172.2014 	 2.3343 	 -14.1208 	 2.5851 	 1.1674 	 61.5542 	 15.2881 	 3.4000
  0.7000 	 1.1000 	 0.5529 	 113.4321 	 2.1557 	 -3.7006 	 2.4725 	 11.8395 	 55.5960 	 15.5401 	 3.4000
  0.7000 	 1.2000 	 0.6901 	 96.8736 	 2.0052 	 1.2201 	 2.3832 	 16.7083 	 49.9015 	 15.4882 	 3.4000
  0.7000 	 1.3000 	 0.8063 	 87.6153 	 1.8761 	 5.2690 	 2.3114 	 20.3972 	 44.3852 	 15.1282 	 3.4000
  0.7000 	 1.4000 	 0.9058 	 81.5505 	 1.7641 	 8.9920 	 2.2527 	 23.4366 	 38.9502 	 14.4446 	 3.4000
  0.7000 	 1.5000 	 0.9921 	 77.2249 	 1.6658 	 12.6343 	 2.2043 	 26.0358 	 33.4733 	 13.4016 	 3.4000
  0.7000 	 1.6000 	 1.0676 	 73.9664 	 1.5786 	 16.3821 	 2.1639 	 28.3061 	 27.7707 	 11.9241 	 3.4000
  0.7000 	 1.7000 	 1.1342 	 71.4151 	 1.5005 	 20.4740 	 2.1298 	 30.3168 	 21.4964 	 9.8427 	 3.4000
  0.7000 	 1.8000 	 1.1934 	 69.3590 	 1.4302 	 25.4683 	 2.1008 	 32.1152 	 13.6800 	 6.6469 	 3.4000
  0.7000 	 1.1000 	 0.5044 	 125.2362 	 2.2085 	 -5.8037 	 2.5249 	 9.3915 	 55.7857 	 15.1951 	 3.5000
  0.7000 	 1.2000 	 0.6457 	 103.4077 	 2.0541 	 -0.1777 	 2.4322 	 14.9662 	 50.0494 	 15.1440 	 3.5000
  0.7000 	 1.3000 	 0.7653 	 92.2594 	 1.9219 	 4.1394 	 2.3576 	 18.9260 	 44.4841 	 14.7866 	 3.5000
  0.7000 	 1.4000 	 0.8678 	 85.2201 	 1.8071 	 8.0116 	 2.2967 	 22.1180 	 38.9912 	 14.1064 	 3.5000
  0.7000 	 1.5000 	 0.9566 	 80.3030 	 1.7064 	 11.7528 	 2.2464 	 24.8190 	 33.4438 	 13.0662 	 3.5000
  0.7000 	 1.6000 	 1.0343 	 76.6488 	 1.6172 	 15.5762 	 2.2043 	 27.1639 	 27.6492 	 11.5877 	 3.5000
  0.7000 	 1.7000 	 1.1029 	 73.8151 	 1.5374 	 19.7399 	 2.1688 	 29.2328 	 21.2365 	 9.4928 	 3.5000
  0.7000 	 1.8000 	 1.1638 	 71.5479 	 1.4655 	 24.8560 	 2.1386 	 31.0786 	 13.1163 	 6.2226 	 3.5000
  0.7000 	 1.1000 	 0.4560 	 142.5921 	 2.2610 	 -8.6957 	 2.5771 	 6.1703 	 55.9650 	 14.8660 	 3.6000
  0.7000 	 1.2000 	 0.6013 	 111.1402 	 2.1028 	 -1.7509 	 2.4811 	 13.0646 	 50.1878 	 14.8155 	 3.6000
  0.7000 	 1.3000 	 0.7243 	 97.4482 	 1.9674 	 2.9239 	 2.4037 	 17.3845 	 44.5743 	 14.4607 	 3.6000
  0.7000 	 1.4000 	 0.8297 	 89.2046 	 1.8499 	 6.9772 	 2.3405 	 20.7609 	 39.0244 	 13.7837 	 3.6000
  0.7000 	 1.5000 	 0.9211 	 83.5873 	 1.7469 	 10.8329 	 2.2882 	 23.5788 	 33.4070 	 12.7459 	 3.6000
  0.7000 	 1.6000 	 1.0010 	 79.4773 	 1.6556 	 14.7409 	 2.2445 	 26.0069 	 27.5201 	 11.2661 	 3.6000
  0.7000 	 1.7000 	 1.0715 	 76.3242 	 1.5740 	 18.9828 	 2.2076 	 28.1393 	 20.9664 	 9.1565 	 3.6000
  0.7000 	 1.8000 	 1.1342 	 73.8213 	 1.5005 	 24.2328 	 2.1762 	 30.0361 	 12.5183 	 5.8033 	 3.6000
  0.7000 	 1.2000 	 0.5569 	 120.6611 	 2.1513 	 -3.5860 	 2.5298 	 10.9158 	 50.3175 	 14.5017 	 3.7000
  0.7000 	 1.3000 	 0.6833 	 103.3358 	 2.0127 	 1.5999 	 2.4496 	 15.7491 	 44.6568 	 14.1493 	 3.7000
  0.7000 	 1.4000 	 0.7916 	 93.5685 	 1.8925 	 5.8794 	 2.3840 	 19.3548 	 39.0505 	 13.4754 	 3.7000
  0.7000 	 1.5000 	 0.8855 	 87.1119 	 1.7871 	 9.8696 	 2.3298 	 22.3094 	 33.3637 	 12.4399 	 3.7000
  0.7000 	 1.6000 	 0.9677 	 82.4723 	 1.6938 	 13.8731 	 2.2844 	 24.8313 	 27.3843 	 10.9582 	 3.7000
  0.7000 	 1.7000 	 1.0402 	 78.9558 	 1.6104 	 18.2007 	 2.2462 	 27.0336 	 20.6866 	 8.8329 	 3.7000
  0.7000 	 1.8000 	 1.1046 	 76.1887 	 1.5354 	 23.5987 	 2.2136 	 28.9855 	 11.8827 	 5.3868 	 3.7000
  0.7000 	 1.2000 	 0.5125 	 133.2468 	 2.1997 	 -5.8766 	 2.5783 	 8.3251 	 50.4392 	 14.2016 	 3.8000
  0.7000 	 1.3000 	 0.6423 	 110.1563 	 2.0578 	 0.1322 	 2.4953 	 13.9836 	 44.7322 	 13.8514 	 3.8000
  0.7000 	 1.4000 	 0.7536 	 98.3985 	 1.9349 	 4.7051 	 2.4274 	 17.8856 	 39.0704 	 13.1805 	 3.8000
  0.7000 	 1.5000 	 0.8500 	 90.9192 	 1.8271 	 8.8565 	 2.3712 	 21.0035 	 33.3145 	 12.1470 	 3.8000
  0.7000 	 1.6000 	 0.9344 	 85.6581 	 1.7317 	 12.9694 	 2.3242 	 23.6326 	 27.2426 	 10.6632 	 3.8000
  0.7000 	 1.7000 	 1.0088 	 81.7254 	 1.6466 	 17.3915 	 2.2845 	 25.9126 	 20.3980 	 8.5211 	 3.8000
  0.7000 	 1.8000 	 1.0750 	 78.6608 	 1.5699 	 22.9539 	 2.2507 	 27.9245 	 11.2051 	 4.9706 	 3.8000
  0.7000 	 1.2000 	 0.4681 	 153.3245 	 2.2479 	 -9.3256 	 2.6267 	 4.5887 	 50.5536 	 13.9143 	 3.9000
  0.7000 	 1.3000 	 0.6013 	 118.2968 	 2.1028 	 -1.5387 	 2.5408 	 12.0275 	 44.8011 	 13.5662 	 3.9000
  0.7000 	 1.4000 	 0.7155 	 103.8151 	 1.9771 	 3.4357 	 2.4706 	 16.3339 	 39.0846 	 12.8982 	 3.9000
  0.7000 	 1.5000 	 0.8145 	 95.0638 	 1.8670 	 7.7852 	 2.4124 	 19.6517 	 33.2602 	 11.8665 	 3.9000
  0.7000 	 1.6000 	 0.9011 	 89.0649 	 1.7695 	 12.0250 	 2.3637 	 22.4053 	 27.0956 	 10.3803 	 3.9000
  0.7000 	 1.7000 	 0.9775 	 84.6515 	 1.6825 	 16.5523 	 2.3226 	 24.7727 	 20.1010 	 8.2204 	 3.9000
  0.7000 	 1.8000 	 1.0454 	 81.2499 	 1.6043 	 22.2991 	 2.2876 	 26.8505 	 10.4789 	 4.5515 	 3.9000
  0.7000 	 1.3000 	 0.5603 	 128.4943 	 2.1476 	 -3.5300 	 2.5862 	 9.7629 	 44.8641 	 13.2929 	 4.0000
  0.7000 	 1.4000 	 0.6774 	 109.9952 	 2.0192 	 2.0433 	 2.5136 	 14.6708 	 39.0936 	 12.6275 	 4.0000
  0.7000 	 1.5000 	 0.7789 	 99.6178 	 1.9066 	 6.6442 	 2.4534 	 18.2419 	 33.2013 	 11.5977 	 4.0000
  0.7000 	 1.6000 	 0.8678 	 92.7297 	 1.8071 	 11.0340 	 2.4031 	 21.1428 	 26.9438 	 10.1087 	 4.0000
  0.7000 	 1.7000 	 0.9461 	 87.7564 	 1.7183 	 15.6795 	 2.3605 	 23.6096 	 19.7960 	 7.9301 	 4.0000
  0.7000 	 1.8000 	 1.0158 	 83.9705 	 1.6385 	 21.6352 	 2.3243 	 25.7607 	 9.6947 	 4.1255 	 4.0000
  0.7000 	 1.3000 	 0.5193 	 142.5855 	 2.1923 	 -6.1439 	 2.6315 	 6.8868 	 44.9218 	 13.0307 	 4.1000
  0.7000 	 1.4000 	 0.6394 	 117.2180 	 2.0611 	 0.4827 	 2.5565 	 12.8506 	 39.0980 	 12.3679 	 4.1000
  0.7000 	 1.5000 	 0.7434 	 104.6799 	 1.9462 	 5.4176 	 2.4943 	 16.7572 	 33.1383 	 11.3397 	 4.1000
  0.7000 	 1.6000 	 0.8345 	 96.7002 	 1.8446 	 9.9888 	 2.4423 	 19.8366 	 26.7877 	 9.8478 	 4.1000
  0.7000 	 1.7000 	 0.9148 	 91.0670 	 1.7540 	 14.7689 	 2.3983 	 22.4183 	 19.4835 	 7.6494 	 4.1000
  0.7000 	 1.8000 	 0.9862 	 86.8398 	 1.6726 	 20.9645 	 2.3608 	 24.6516 	 8.8387 	 3.6870 	 4.1000
  0.7000 	 1.3000 	 0.4783 	 174.5831 	 2.2368 	 -11.8123 	 2.6766 	 0.9666 	 44.9745 	 12.7789 	 4.2000
  0.7000 	 1.4000 	 0.6013 	 125.9746 	 2.1028 	 -1.3278 	 2.5992 	 10.7908 	 39.0981 	 12.1186 	 4.2000
  0.7000 	 1.5000 	 0.7079 	 110.3912 	 1.9855 	 4.0819 	 2.5350 	 15.1737 	 33.0717 	 11.0919 	 4.2000
  0.7000 	 1.6000 	 0.8012 	 101.0384 	 1.8819 	 8.8789 	 2.4813 	 18.4758 	 26.6279 	 9.5969 	 4.2000
  0.7000 	 1.7000 	 0.8834 	 94.6168 	 1.7895 	 13.8148 	 2.4358 	 21.1927 	 19.1638 	 7.3779 	 4.2000
  0.7000 	 1.8000 	 0.9566 	 89.8782 	 1.7064 	 20.2915 	 2.3971 	 23.5192 	 7.8889 	 3.2276 	 4.2000
  0.7000 	 1.4000 	 0.5633 	 137.3116 	 2.1444 	 -3.5673 	 2.6418 	 8.3117 	 39.0945 	 11.8791 	 4.3000
  0.7000 	 1.5000 	 0.6724 	 116.9670 	 2.0248 	 2.6006 	 2.5756 	 13.4543 	 33.0017 	 10.8537 	 4.3000
  0.7000 	 1.6000 	 0.7678 	 105.8277 	 1.9190 	 7.6901 	 2.5201 	 17.0456 	 26.4647 	 9.3555 	 4.3000
  0.7000 	 1.7000 	 0.8521 	 98.4480 	 1.8248 	 12.8100 	 2.4732 	 19.9248 	 18.8370 	 7.1149 	 4.3000
  0.7000 	 1.8000 	 0.9270 	 93.1105 	 1.7401 	 19.6255 	 2.4332 	 22.3587 	 6.8078 	 2.7332 	 4.3000
  0.7000 	 1.4000 	 0.5252 	 154.6993 	 2.1859 	 -6.8521 	 2.6842 	 4.7966 	 39.0874 	 11.6486 	 4.4000
  0.7000 	 1.5000 	 0.6368 	 124.7674 	 2.0638 	 0.9112 	 2.6160 	 11.5358 	 32.9289 	 10.6246 	 4.4000
  0.7000 	 1.6000 	 0.7345 	 111.1860 	 1.9560 	 6.4021 	 2.5588 	 15.5251 	 26.2985 	 9.1230 	 4.4000
  0.7000 	 1.7000 	 0.8207 	 102.6155 	 1.8599 	 11.7450 	 2.5104 	 18.6048 	 18.5034 	 6.8598 	 4.4000
  0.7000 	 1.8000 	 0.8974 	 96.5672 	 1.7737 	 18.9885 	 2.4692 	 21.1643 	 5.5204 	 2.1758 	 4.4000
  0.7000 	 1.5000 	 0.6013 	 134.4923 	 2.1028 	 -1.1111 	 2.6563 	 9.2930 	 32.8535 	 10.4041 	 4.5000
  0.7000 	 1.6000 	 0.7012 	 117.2883 	 1.9929 	 4.9837 	 2.5974 	 13.8826 	 26.1296 	 8.8989 	 4.5000
  0.7000 	 1.7000 	 0.7894 	 107.1924 	 1.8950 	 10.6068 	 2.5475 	 17.2190 	 18.1631 	 6.6122 	 4.5000
  0.7000 	 1.8000 	 0.8678 	 100.2869 	 1.8071 	 18.4476 	 2.5050 	 19.9286 	 3.8258 	 1.4810 	 4.5000
  0.8000 	 1.0000 	 0.6546 	 90.3926 	 1.9755 	 -3.2210 	 2.2996 	 16.5380 	 56.5960 	 19.7590 	 2.9000
  0.8000 	 1.1000 	 0.7951 	 80.1508 	 1.8187 	 0.6912 	 2.2077 	 20.7840 	 51.3538 	 20.0928 	 2.9000
  0.8000 	 1.2000 	 0.9122 	 73.8920 	 1.6859 	 4.1383 	 2.1351 	 24.2338 	 46.3920 	 20.0955 	 2.9000
  0.8000 	 1.3000 	 1.0112 	 69.6208 	 1.5716 	 7.3880 	 2.0768 	 27.1576 	 41.6412 	 19.7696 	 2.9000
  0.8000 	 1.4000 	 1.0961 	 66.5018 	 1.4718 	 10.5854 	 2.0294 	 29.6922 	 37.0286 	 19.1068 	 2.9000
  0.8000 	 1.5000 	 1.1697 	 64.1162 	 1.3838 	 13.8383 	 1.9903 	 31.9210 	 32.4714 	 18.0827 	 2.9000
  0.8000 	 1.6000 	 1.2341 	 62.2285 	 1.3052 	 17.2552 	 1.9578 	 33.9011 	 27.8632 	 16.6459 	 2.9000
  0.8000 	 1.7000 	 1.2909 	 60.6955 	 1.2346 	 20.9815 	 1.9304 	 35.6739 	 23.0419 	 14.6923 	 2.9000
  0.8000 	 1.8000 	 1.3414 	 59.4246 	 1.1705 	 25.2806 	 1.9071 	 37.2713 	 17.6963 	 11.9907 	 2.9000
  0.8000 	 1.9000 	 1.3866 	 58.3531 	 1.1120 	 30.8947 	 1.8872 	 38.7185 	 10.9071 	 7.8237 	 2.9000
  0.8000 	 1.0000 	 0.6013 	 97.6936 	 2.0343 	 -4.5994 	 2.3571 	 14.6442 	 56.9409 	 19.2436 	 3.0000
  0.8000 	 1.1000 	 0.7467 	 85.0186 	 1.8731 	 -0.3674 	 2.2610 	 19.2069 	 51.6672 	 19.5742 	 3.0000
  0.8000 	 1.2000 	 0.8678 	 77.6266 	 1.7366 	 3.2453 	 2.1851 	 22.8236 	 46.6686 	 19.5783 	 3.0000
  0.8000 	 1.3000 	 0.9702 	 72.7062 	 1.6191 	 6.5981 	 2.1242 	 25.8556 	 41.8761 	 19.2575 	 3.0000
  0.8000 	 1.4000 	 1.0581 	 69.1692 	 1.5168 	 9.8657 	 2.0746 	 28.4688 	 37.2166 	 18.6031 	 3.0000
  0.8000 	 1.5000 	 1.1342 	 66.4930 	 1.4265 	 13.1688 	 2.0337 	 30.7589 	 32.6060 	 17.5901 	 3.0000
  0.8000 	 1.6000 	 1.2008 	 64.3923 	 1.3460 	 16.6225 	 1.9996 	 32.7890 	 27.9349 	 16.1665 	 3.0000
  0.8000 	 1.7000 	 1.2596 	 62.6966 	 1.2737 	 20.3774 	 1.9709 	 34.6041 	 23.0347 	 14.2268 	 3.0000
  0.8000 	 1.8000 	 1.3118 	 61.2977 	 1.2082 	 24.7052 	 1.9465 	 36.2381 	 17.5748 	 11.5329 	 3.0000
  0.8000 	 1.9000 	 1.3586 	 60.1229 	 1.1485 	 30.3974 	 1.9256 	 37.7174 	 10.5393 	 7.3200 	 3.0000
  0.8000 	 1.0000 	 0.5480 	 106.5949 	 2.0929 	 -6.1919 	 2.4143 	 12.5642 	 57.2652 	 18.7562 	 3.1000
  0.8000 	 1.1000 	 0.6982 	 90.5202 	 1.9271 	 -1.5242 	 2.3142 	 17.5595 	 51.9606 	 19.0837 	 3.1000
  0.8000 	 1.2000 	 0.8234 	 81.7032 	 1.7869 	 2.2902 	 2.2350 	 21.3792 	 46.9259 	 19.0890 	 3.1000
  0.8000 	 1.3000 	 0.9293 	 76.0064 	 1.6664 	 5.7627 	 2.1714 	 24.5355 	 42.0921 	 18.7728 	 3.1000
  0.8000 	 1.4000 	 1.0200 	 71.9840 	 1.5613 	 9.1100 	 2.1195 	 27.2359 	 37.3859 	 18.1259 	 3.1000
  0.8000 	 1.5000 	 1.0987 	 68.9773 	 1.4688 	 12.4696 	 2.0768 	 29.5924 	 32.7218 	 17.1228 	 3.1000
  0.8000 	 1.6000 	 1.1675 	 66.6377 	 1.3864 	 15.9652 	 2.0411 	 31.6758 	 27.9871 	 15.7106 	 3.1000
  0.8000 	 1.7000 	 1.2283 	 64.7618 	 1.3125 	 19.7536 	 2.0110 	 33.5354 	 23.0059 	 13.7818 	 3.1000
  0.8000 	 1.8000 	 1.2822 	 63.2220 	 1.2455 	 24.1170 	 1.9855 	 35.2075 	 17.4262 	 11.0904 	 3.1000
  0.8000 	 1.9000 	 1.3305 	 61.9344 	 1.1845 	 29.9067 	 1.9637 	 36.7200 	 10.1164 	 6.8133 	 3.1000
  0.8000 	 1.0000 	 0.4947 	 118.0354 	 2.1511 	 -8.1172 	 2.4714 	 10.1772 	 57.5708 	 18.2944 	 3.2000
  0.8000 	 1.1000 	 0.6498 	 96.8512 	 1.9809 	 -2.8037 	 2.3671 	 15.8152 	 52.2361 	 18.6189 	 3.2000
  0.8000 	 1.2000 	 0.7789 	 86.1962 	 1.8369 	 1.2642 	 2.2846 	 19.8894 	 47.1657 	 18.6251 	 3.2000
  0.8000 	 1.3000 	 0.8883 	 79.5581 	 1.7132 	 4.8779 	 2.2183 	 23.1911 	 42.2912 	 18.3132 	 3.2000
  0.8000 	 1.4000 	 0.9820 	 74.9677 	 1.6056 	 8.3164 	 2.1642 	 25.9895 	 37.5385 	 17.6731 	 3.2000
  0.8000 	 1.5000 	 1.0632 	 71.5829 	 1.5108 	 11.7397 	 2.1195 	 28.4186 	 32.8208 	 16.6789 	 3.2000
  0.8000 	 1.6000 	 1.1342 	 68.9744 	 1.4265 	 15.2827 	 2.0823 	 30.5593 	 28.0219 	 15.2766 	 3.2000
  0.8000 	 1.7000 	 1.1969 	 66.8978 	 1.3508 	 19.1097 	 2.0509 	 32.4659 	 22.9579 	 13.3563 	 3.2000
  0.8000 	 1.8000 	 1.2526 	 65.2030 	 1.2824 	 23.5151 	 2.0242 	 34.1779 	 17.2530 	 10.6627 	 3.2000
  0.8000 	 1.9000 	 1.3025 	 63.7920 	 1.2200 	 29.4230 	 2.0014 	 35.7249 	 9.6368 	 6.3019 	 3.2000
  0.8000 	 1.0000 	 0.4414 	 134.3431 	 2.2092 	 -10.6832 	 2.5283 	 7.1731 	 57.8593 	 17.8563 	 3.3000
  0.8000 	 1.1000 	 0.6013 	 104.3156 	 2.0343 	 -4.2454 	 2.4199 	 13.9323 	 52.4950 	 18.1777 	 3.3000
  0.8000 	 1.2000 	 0.7345 	 91.2060 	 1.8866 	 0.1545 	 2.3340 	 18.3392 	 47.3898 	 18.1847 	 3.3000
  0.8000 	 1.3000 	 0.8473 	 83.4078 	 1.7598 	 3.9382 	 2.2649 	 21.8149 	 42.4750 	 17.8767 	 3.3000
  0.8000 	 1.4000 	 0.9439 	 78.1461 	 1.6495 	 7.4820 	 2.2086 	 24.7249 	 37.6762 	 17.2429 	 3.3000
  0.8000 	 1.5000 	 1.0276 	 74.3258 	 1.5525 	 10.9776 	 2.1620 	 27.2343 	 32.9049 	 16.2567 	 3.3000
  0.8000 	 1.6000 	 1.1009 	 71.4131 	 1.4662 	 14.5740 	 2.1232 	 29.4370 	 28.0412 	 14.8630 	 3.3000
  0.8000 	 1.7000 	 1.1656 	 69.1127 	 1.3888 	 18.4448 	 2.0905 	 31.3938 	 22.8928 	 12.9489 	 3.3000
  0.8000 	 1.8000 	 1.2230 	 67.2465 	 1.3189 	 22.8985 	 2.0626 	 33.1477 	 17.0575 	 10.2491 	 3.3000
  0.8000 	 1.9000 	 1.2744 	 65.7003 	 1.2552 	 28.9475 	 2.0388 	 34.7307 	 9.0969 	 5.7832 	 3.3000
  0.8000 	 1.0000 	 0.3882 	 172.2014 	 2.2669 	 -16.2725 	 2.5851 	 1.1674 	 58.1321 	 17.4399 	 3.4000
  0.8000 	 1.1000 	 0.5529 	 113.4321 	 2.0876 	 -5.9187 	 2.4725 	 11.8395 	 52.7390 	 17.7582 	 3.4000
  0.8000 	 1.2000 	 0.6901 	 96.8736 	 1.9361 	 -1.0576 	 2.3832 	 16.7083 	 47.5995 	 17.7659 	 3.4000
  0.8000 	 1.3000 	 0.8063 	 87.6153 	 1.8062 	 2.9358 	 2.3114 	 20.3972 	 42.6450 	 17.4615 	 3.4000
  0.8000 	 1.4000 	 0.9058 	 81.5505 	 1.6932 	 6.6031 	 2.2527 	 23.4366 	 37.8005 	 16.8335 	 3.4000
  0.8000 	 1.5000 	 0.9921 	 77.2249 	 1.5938 	 10.1813 	 2.2043 	 26.0358 	 32.9756 	 15.8545 	 3.4000
  0.8000 	 1.6000 	 1.0676 	 73.9664 	 1.5056 	 13.8379 	 2.1639 	 28.3061 	 28.0469 	 14.4682 	 3.4000
  0.8000 	 1.7000 	 1.1342 	 71.4151 	 1.4265 	 17.7581 	 2.1298 	 30.3168 	 22.8124 	 12.5587 	 3.4000
  0.8000 	 1.8000 	 1.1934 	 69.3590 	 1.3550 	 22.2664 	 2.1008 	 32.1152 	 16.8414 	 9.8488 	 3.4000
  0.8000 	 1.9000 	 1.2464 	 67.6643 	 1.2901 	 28.4831 	 2.0759 	 33.7360 	 8.4901 	 5.2529 	 3.4000
  0.8000 	 1.1000 	 0.5044 	 125.2362 	 2.1406 	 -7.9674 	 2.5249 	 9.3915 	 52.9693 	 17.3589 	 3.5000
  0.8000 	 1.2000 	 0.6457 	 103.4077 	 1.9853 	 -2.4009 	 2.4322 	 14.9662 	 47.7961 	 17.3671 	 3.5000
  0.8000 	 1.3000 	 0.7653 	 92.2594 	 1.8522 	 1.8600 	 2.3576 	 18.9260 	 42.8024 	 17.0660 	 3.5000
  0.8000 	 1.4000 	 0.8678 	 85.2201 	 1.7366 	 5.6747 	 2.2967 	 22.1180 	 37.9126 	 16.4434 	 3.5000
  0.8000 	 1.5000 	 0.9566 	 80.3030 	 1.6349 	 9.3480 	 2.2464 	 24.8190 	 33.0344 	 15.4710 	 3.5000
  0.8000 	 1.6000 	 1.0343 	 76.6488 	 1.5447 	 13.0728 	 2.2043 	 27.1639 	 28.0403 	 14.0912 	 3.5000
  0.8000 	 1.7000 	 1.1029 	 73.8151 	 1.4638 	 17.0482 	 2.1688 	 29.2328 	 22.7184 	 12.1846 	 3.5000
  0.8000 	 1.8000 	 1.1638 	 71.5479 	 1.3909 	 21.6175 	 2.1386 	 31.0786 	 16.6062 	 9.4611 	 3.5000
  0.8000 	 1.9000 	 1.2184 	 69.6896 	 1.3246 	 28.0344 	 2.1127 	 32.7393 	 7.8056 	 4.7049 	 3.5000
  0.8000 	 1.1000 	 0.4560 	 142.5921 	 2.1934 	 -10.8078 	 2.5771 	 6.1703 	 53.1869 	 16.9781 	 3.6000
  0.8000 	 1.2000 	 0.6013 	 111.1402 	 2.0343 	 -3.9222 	 2.4811 	 13.0646 	 47.9807 	 16.9868 	 3.6000
  0.8000 	 1.3000 	 0.7243 	 97.4482 	 1.8981 	 0.6957 	 2.4037 	 17.3845 	 42.9485 	 16.6888 	 3.6000
  0.8000 	 1.4000 	 0.8297 	 89.2046 	 1.7797 	 4.6898 	 2.3405 	 20.7609 	 38.0138 	 16.0712 	 3.6000
  0.8000 	 1.5000 	 0.9211 	 83.5873 	 1.6758 	 8.4740 	 2.2882 	 23.5788 	 33.0825 	 15.1048 	 3.6000
  0.8000 	 1.6000 	 1.0010 	 79.4773 	 1.5835 	 12.2763 	 2.2445 	 26.0069 	 28.0227 	 13.7306 	 3.6000
  0.8000 	 1.7000 	 1.0715 	 76.3242 	 1.5009 	 16.3138 	 2.2076 	 28.1393 	 22.6121 	 11.8255 	 3.6000
  0.8000 	 1.8000 	 1.1342 	 73.8213 	 1.4265 	 20.9508 	 2.1762 	 30.0361 	 16.3531 	 9.0852 	 3.6000
  0.8000 	 1.9000 	 1.1903 	 71.7823 	 1.3588 	 27.6097 	 2.1493 	 31.7391 	 7.0253 	 4.1293 	 3.6000
  0.8000 	 1.2000 	 0.5569 	 120.6611 	 2.0831 	 -5.7080 	 2.5298 	 10.9158 	 48.1544 	 16.6238 	 3.7000
  0.8000 	 1.3000 	 0.6833 	 103.3358 	 1.9437 	 -0.5795 	 2.4496 	 15.7491 	 43.0842 	 16.3286 	 3.7000
  0.8000 	 1.4000 	 0.7916 	 93.5685 	 1.8226 	 3.6392 	 2.3840 	 19.3548 	 38.1051 	 15.7156 	 3.7000
  0.8000 	 1.5000 	 0.8855 	 87.1119 	 1.7164 	 7.5546 	 2.3298 	 22.3094 	 33.1209 	 14.7548 	 3.7000
  0.8000 	 1.6000 	 0.9677 	 82.4723 	 1.6221 	 11.4458 	 2.2844 	 24.8313 	 27.9953 	 13.3855 	 3.7000
  0.8000 	 1.7000 	 1.0402 	 78.9558 	 1.5378 	 15.5529 	 2.2462 	 27.0336 	 22.4947 	 11.4807 	 3.7000
  0.8000 	 1.8000 	 1.1046 	 76.1887 	 1.4618 	 20.2650 	 2.2136 	 28.9855 	 16.0832 	 8.7205 	 3.7000
  0.8000 	 1.9000 	 1.1623 	 73.9494 	 1.3928 	 27.2242 	 2.1856 	 30.7336 	 6.1174 	 3.5093 	 3.7000
  0.8000 	 1.2000 	 0.5125 	 133.2468 	 2.1317 	 -7.9516 	 2.5783 	 8.3251 	 48.3180 	 16.2767 	 3.8000
  0.8000 	 1.3000 	 0.6423 	 110.1563 	 1.9891 	 -2.0005 	 2.4953 	 13.9836 	 43.2104 	 15.9842 	 3.8000
  0.8000 	 1.4000 	 0.7536 	 98.3985 	 1.8653 	 2.5100 	 2.4274 	 17.8856 	 38.1874 	 15.3756 	 3.8000
  0.8000 	 1.5000 	 0.8500 	 90.9192 	 1.7567 	 6.5836 	 2.3712 	 21.0035 	 33.1506 	 14.4199 	 3.8000
  0.8000 	 1.6000 	 0.9344 	 85.6581 	 1.6605 	 10.5777 	 2.3242 	 23.6326 	 27.9591 	 13.0549 	 3.8000
  0.8000 	 1.7000 	 1.0088 	 81.7254 	 1.5744 	 14.7633 	 2.2845 	 25.9126 	 22.3673 	 11.1493 	 3.8000
  0.8000 	 1.8000 	 1.0750 	 78.6608 	 1.4968 	 19.5583 	 2.2507 	 27.9245 	 15.7973 	 8.3662 	 3.8000
  0.8000 	 1.9000 	 1.1342 	 76.1986 	 1.4265 	 26.9092 	 2.2217 	 29.7210 	 5.0182 	 2.8118 	 3.8000
  0.8000 	 1.2000 	 0.4681 	 153.3245 	 2.1802 	 -11.3558 	 2.6267 	 4.5887 	 48.4724 	 15.9445 	 3.9000
  0.8000 	 1.3000 	 0.6013 	 118.2968 	 2.0343 	 -3.6270 	 2.5408 	 12.0275 	 43.3280 	 15.6546 	 3.9000
  0.8000 	 1.4000 	 0.7155 	 103.8151 	 1.9079 	 1.2838 	 2.4706 	 16.3339 	 38.2615 	 15.0501 	 3.9000
  0.8000 	 1.5000 	 0.8145 	 95.0638 	 1.7969 	 5.5525 	 2.4124 	 19.6517 	 33.1725 	 14.0992 	 3.9000
  0.8000 	 1.6000 	 0.9011 	 89.0649 	 1.6986 	 9.6675 	 2.3637 	 22.4053 	 27.9150 	 12.7378 	 3.9000
  0.8000 	 1.7000 	 0.9775 	 84.6515 	 1.6108 	 13.9422 	 2.3226 	 24.7727 	 22.2308 	 10.8304 	 3.9000
  0.8000 	 1.8000 	 1.0454 	 81.2499 	 1.5317 	 18.8290 	 2.2876 	 26.8505 	 15.4960 	 8.0215 	 3.9000
  0.8000 	 1.9000 	 1.1062 	 78.5388 	 1.4599 	 26.7494 	 2.2575 	 28.6995 	 3.5605 	 1.9502 	 3.9000
  0.8000 	 1.3000 	 0.5603 	 128.4943 	 2.0794 	 -5.5758 	 2.5862 	 9.7629 	 43.4376 	 15.3387 	 4.0000
  0.8000 	 1.4000 	 0.6774 	 109.9952 	 1.9502 	 -0.0673 	 2.5136 	 14.6708 	 38.3282 	 14.7382 	 4.0000
  0.8000 	 1.5000 	 0.7789 	 99.6178 	 1.8369 	 4.4502 	 2.4534 	 18.2419 	 33.1873 	 13.7917 	 4.0000
  0.8000 	 1.6000 	 0.8678 	 92.7297 	 1.7366 	 8.7092 	 2.4031 	 21.1428 	 27.8637 	 12.4335 	 4.0000
  0.8000 	 1.7000 	 0.9461 	 87.7564 	 1.6470 	 13.0861 	 2.3605 	 23.6096 	 22.0859 	 10.5235 	 4.0000
  0.8000 	 1.8000 	 1.0158 	 83.9705 	 1.5663 	 18.0748 	 2.3243 	 25.7607 	 15.1797 	 7.6859 	 4.0000
  0.8000 	 1.3000 	 0.5193 	 142.5855 	 2.1243 	 -8.1490 	 2.6315 	 6.8868 	 43.5399 	 15.0358 	 4.1000
  0.8000 	 1.4000 	 0.6394 	 117.2180 	 1.9923 	 -1.5884 	 2.5565 	 12.8506 	 38.3880 	 14.4390 	 4.1000
  0.8000 	 1.5000 	 0.7434 	 104.6799 	 1.8767 	 3.2606 	 2.4943 	 16.7572 	 33.1956 	 13.4966 	 4.1000
  0.8000 	 1.6000 	 0.8345 	 96.7002 	 1.7743 	 7.6954 	 2.4423 	 19.8366 	 27.8059 	 12.1412 	 4.1000
  0.8000 	 1.7000 	 0.9148 	 91.0670 	 1.6829 	 12.1906 	 2.3983 	 22.4183 	 21.9336 	 10.2278 	 4.1000
  0.8000 	 1.8000 	 0.9862 	 86.8398 	 1.6007 	 17.2930 	 2.3608 	 24.6516 	 14.8487 	 7.3586 	 4.1000
  0.8000 	 1.3000 	 0.4783 	 174.5831 	 2.1690 	 -13.7784 	 2.6766 	 0.9666 	 43.6355 	 14.7450 	 4.2000
  0.8000 	 1.4000 	 0.6013 	 125.9746 	 2.0343 	 -3.3608 	 2.5992 	 10.7908 	 38.4417 	 14.1517 	 4.2000
  0.8000 	 1.5000 	 0.7079 	 110.3912 	 1.9163 	 1.9605 	 2.5350 	 15.1737 	 33.1981 	 13.2132 	 4.2000
  0.8000 	 1.6000 	 0.8012 	 101.0384 	 1.8119 	 6.6155 	 2.4813 	 18.4758 	 27.7424 	 11.8603 	 4.2000
  0.8000 	 1.7000 	 0.8834 	 94.6168 	 1.7187 	 11.2500 	 2.4358 	 21.1927 	 21.7743 	 9.9426 	 4.2000
  0.8000 	 1.8000 	 0.9566 	 89.8782 	 1.6349 	 16.4802 	 2.3971 	 23.5192 	 14.5033 	 7.0389 	 4.2000
  0.8000 	 1.4000 	 0.5633 	 137.3116 	 2.0762 	 -5.5639 	 2.6418 	 8.3117 	 38.4897 	 13.8756 	 4.3000
  0.8000 	 1.5000 	 0.6724 	 116.9670 	 1.9558 	 0.5134 	 2.5756 	 13.4543 	 33.1953 	 12.9409 	 4.3000
  0.8000 	 1.6000 	 0.7678 	 105.8277 	 1.8494 	 5.4556 	 2.5201 	 17.0456 	 27.6736 	 11.5900 	 4.3000
  0.8000 	 1.7000 	 0.8521 	 98.4480 	 1.7544 	 10.2573 	 2.4732 	 19.9248 	 21.6086 	 9.6675 	 4.3000
  0.8000 	 1.8000 	 0.9270 	 93.1105 	 1.6690 	 15.6324 	 2.4332 	 22.3587 	 14.1433 	 6.7262 	 4.3000
  0.8000 	 1.4000 	 0.5252 	 154.6993 	 2.1179 	 -8.8136 	 2.6842 	 4.7966 	 38.5325 	 13.6101 	 4.4000
  0.8000 	 1.5000 	 0.6368 	 124.7674 	 1.9951 	 -1.1430 	 2.6160 	 11.5358 	 33.1877 	 12.6788 	 4.4000
  0.8000 	 1.6000 	 0.7345 	 111.1860 	 1.8866 	 4.1953 	 2.5588 	 15.5251 	 27.6000 	 11.3297 	 4.4000
  0.8000 	 1.7000 	 0.8207 	 102.6155 	 1.7898 	 9.2029 	 2.5104 	 18.6048 	 21.4371 	 9.4019 	 4.4000
  0.8000 	 1.8000 	 0.8974 	 96.5672 	 1.7028 	 14.7444 	 2.4692 	 21.1643 	 13.7687 	 6.4199 	 4.4000
  0.8000 	 1.5000 	 0.6013 	 134.4923 	 2.0343 	 -3.1336 	 2.6563 	 9.2930 	 33.1757 	 12.4266 	 4.5000
  0.8000 	 1.6000 	 0.7012 	 117.2883 	 1.9238 	 2.8036 	 2.5974 	 13.8826 	 27.5221 	 11.0790 	 4.5000
  0.8000 	 1.7000 	 0.7894 	 107.1924 	 1.8252 	 8.0738 	 2.5475 	 17.2190 	 21.2603 	 9.1452 	 4.5000
  0.8000 	 1.8000 	 0.8678 	 100.2869 	 1.7366 	 13.8094 	 2.5050 	 19.9286 	 13.3790 	 6.1192 	 4.5000
  0.9000 	 1.0000 	 0.6546 	 90.3926 	 1.9010 	 -5.7135 	 2.2996 	 16.5380 	 53.1149 	 22.2516 	 2.9000
  0.9000 	 1.1000 	 0.7951 	 80.1508 	 1.7429 	 -1.8759 	 2.2077 	 20.7840 	 48.2532 	 22.6599 	 2.9000
  0.9000 	 1.2000 	 0.9122 	 73.8920 	 1.6087 	 1.5152 	 2.1351 	 24.2338 	 43.6572 	 22.7186 	 2.9000
  0.9000 	 1.3000 	 1.0112 	 69.6208 	 1.4929 	 4.7286 	 2.0768 	 27.1576 	 39.2651 	 22.4290 	 2.9000
  0.9000 	 1.4000 	 1.0961 	 66.5018 	 1.3916 	 7.9110 	 2.0294 	 29.6922 	 35.0129 	 21.7812 	 2.9000
  0.9000 	 1.5000 	 1.1697 	 64.1162 	 1.3019 	 11.1729 	 1.9903 	 31.9210 	 30.8287 	 20.7481 	 2.9000
  0.9000 	 1.6000 	 1.2341 	 62.2285 	 1.2217 	 14.6253 	 1.9578 	 33.9011 	 26.6224 	 19.2758 	 2.9000
  0.9000 	 1.7000 	 1.2909 	 60.6955 	 1.1492 	 18.4146 	 1.9304 	 35.6739 	 22.2628 	 17.2593 	 2.9000
  0.9000 	 1.8000 	 1.3414 	 59.4246 	 1.0832 	 22.7928 	 1.9071 	 37.2713 	 17.5128 	 14.4785 	 2.9000
  0.9000 	 1.9000 	 1.3866 	 58.3531 	 1.0227 	 28.3827 	 1.8872 	 38.7185 	 11.7638 	 10.3357 	 2.9000
  0.9000 	 1.0000 	 0.6013 	 97.6936 	 1.9602 	 -7.0164 	 2.3571 	 14.6442 	 53.5074 	 21.6606 	 3.0000
  0.9000 	 1.1000 	 0.7467 	 85.0186 	 1.7978 	 -2.8576 	 2.2610 	 19.2069 	 48.6225 	 22.0645 	 3.0000
  0.9000 	 1.2000 	 0.8678 	 77.6266 	 1.6600 	 0.6988 	 2.1851 	 22.8236 	 43.9989 	 22.1248 	 3.0000
  0.9000 	 1.3000 	 0.9702 	 72.7062 	 1.5411 	 4.0134 	 2.1242 	 25.8556 	 39.5757 	 21.8422 	 3.0000
  0.9000 	 1.4000 	 1.0581 	 69.1692 	 1.4373 	 7.2617 	 2.0746 	 28.4688 	 35.2892 	 21.2070 	 3.0000
  0.9000 	 1.5000 	 1.1342 	 66.4930 	 1.3455 	 10.5659 	 2.0337 	 30.7589 	 31.0672 	 20.1930 	 3.0000
  0.9000 	 1.6000 	 1.2008 	 64.3923 	 1.2634 	 14.0419 	 1.9996 	 32.7890 	 26.8188 	 18.7471 	 3.0000
  0.9000 	 1.7000 	 1.2596 	 62.6966 	 1.1894 	 17.8375 	 1.9709 	 34.6041 	 22.4104 	 16.7666 	 3.0000
  0.9000 	 1.8000 	 1.3118 	 61.2977 	 1.1221 	 22.2033 	 1.9465 	 36.2381 	 17.5994 	 14.0348 	 3.0000
  0.9000 	 1.9000 	 1.3586 	 60.1229 	 1.0605 	 27.7605 	 1.9256 	 37.7174 	 11.7554 	 9.9569 	 3.0000
  0.9000 	 1.0000 	 0.5480 	 106.5949 	 2.0192 	 -8.5381 	 2.4143 	 12.5642 	 53.8761 	 21.1024 	 3.1000
  0.9000 	 1.1000 	 0.6982 	 90.5202 	 1.8522 	 -3.9424 	 2.3142 	 17.5595 	 48.9681 	 21.5020 	 3.1000
  0.9000 	 1.2000 	 0.8234 	 81.7032 	 1.7108 	 -0.1842 	 2.2350 	 21.3792 	 44.3170 	 21.5634 	 3.1000
  0.9000 	 1.3000 	 0.9293 	 76.0064 	 1.5889 	 3.2484 	 2.1714 	 24.5355 	 39.8626 	 21.2872 	 3.1000
  0.9000 	 1.4000 	 1.0200 	 71.9840 	 1.4826 	 6.5726 	 2.1195 	 27.2359 	 35.5414 	 20.6633 	 3.1000
  0.9000 	 1.5000 	 1.0987 	 68.9773 	 1.3886 	 9.9263 	 2.0768 	 29.5924 	 31.2807 	 19.6661 	 3.1000
  0.9000 	 1.6000 	 1.1675 	 66.6377 	 1.3047 	 13.4325 	 2.0411 	 31.6758 	 26.9886 	 18.2433 	 3.1000
  0.9000 	 1.7000 	 1.2283 	 64.7618 	 1.2291 	 17.2418 	 2.0110 	 33.5354 	 22.5288 	 16.2936 	 3.1000
  0.9000 	 1.8000 	 1.2822 	 63.2220 	 1.1604 	 21.6056 	 1.9855 	 35.2075 	 17.6515 	 13.6018 	 3.1000
  0.9000 	 1.9000 	 1.3305 	 61.9344 	 1.0976 	 27.1502 	 1.9637 	 36.7200 	 11.6981 	 9.5698 	 3.1000
  0.9000 	 1.0000 	 0.4947 	 118.0354 	 2.0778 	 -10.3969 	 2.4714 	 10.1772 	 54.2231 	 20.5741 	 3.2000
  0.9000 	 1.1000 	 0.6498 	 96.8512 	 1.9064 	 -5.1543 	 2.3671 	 15.8152 	 49.2923 	 20.9695 	 3.2000
  0.9000 	 1.2000 	 0.7789 	 86.1962 	 1.7613 	 -1.1425 	 2.2846 	 19.8894 	 44.6139 	 21.0318 	 3.2000
  0.9000 	 1.3000 	 0.8883 	 79.5581 	 1.6364 	 2.4299 	 2.2183 	 23.1911 	 40.1283 	 20.7612 	 3.2000
  0.9000 	 1.4000 	 0.9820 	 74.9677 	 1.5274 	 5.8419 	 2.1642 	 25.9895 	 35.7720 	 20.1476 	 3.2000
  0.9000 	 1.5000 	 1.0632 	 71.5829 	 1.4313 	 9.2532 	 2.1195 	 28.4186 	 31.4720 	 19.1654 	 3.2000
  0.9000 	 1.6000 	 1.1342 	 68.9744 	 1.3455 	 12.7964 	 2.0823 	 30.5593 	 27.1350 	 17.7629 	 3.2000
  0.9000 	 1.7000 	 1.1969 	 66.8978 	 1.2683 	 16.6263 	 2.0509 	 32.4659 	 22.6215 	 15.8396 	 3.2000
  0.9000 	 1.8000 	 1.2526 	 65.2030 	 1.1983 	 20.9974 	 2.0242 	 34.1779 	 17.6731 	 13.1804 	 3.2000
  0.9000 	 1.9000 	 1.3025 	 63.7920 	 1.1343 	 26.5469 	 2.0014 	 35.7249 	 11.5967 	 9.1780 	 3.2000
  0.9000 	 1.0000 	 0.4414 	 134.3431 	 2.1361 	 -12.9002 	 2.5283 	 7.1731 	 54.5503 	 20.0734 	 3.3000
  0.9000 	 1.1000 	 0.6013 	 104.3156 	 1.9602 	 -6.5322 	 2.4199 	 13.9323 	 49.5971 	 20.4645 	 3.3000
  0.9000 	 1.2000 	 0.7345 	 91.2060 	 1.8114 	 -2.1883 	 2.3340 	 18.3392 	 44.8916 	 20.5276 	 3.3000
  0.9000 	 1.3000 	 0.8473 	 83.4078 	 1.6835 	 1.5528 	 2.2649 	 21.8149 	 40.3748 	 20.2621 	 3.3000
  0.9000 	 1.4000 	 0.9439 	 78.1461 	 1.5719 	 5.0672 	 2.2086 	 24.7249 	 35.9832 	 19.6577 	 3.3000
  0.9000 	 1.5000 	 1.0276 	 74.3258 	 1.4735 	 8.5454 	 2.1620 	 27.2343 	 31.6434 	 18.6889 	 3.3000
  0.9000 	 1.6000 	 1.1009 	 71.4131 	 1.3859 	 12.1325 	 2.1232 	 29.4370 	 27.2605 	 17.3044 	 3.3000
  0.9000 	 1.7000 	 1.1656 	 69.1127 	 1.3071 	 15.9900 	 2.0905 	 31.3938 	 22.6912 	 15.4038 	 3.3000
  0.9000 	 1.8000 	 1.2230 	 67.2465 	 1.2357 	 20.3768 	 2.0626 	 33.1477 	 17.6676 	 12.7709 	 3.3000
  0.9000 	 1.9000 	 1.2744 	 65.7003 	 1.1704 	 25.9467 	 2.0388 	 34.7307 	 11.4550 	 8.7840 	 3.3000
  0.9000 	 1.0000 	 0.3882 	 172.2014 	 2.1942 	 -18.4305 	 2.5851 	 1.1674 	 54.8595 	 19.5979 	 3.4000
  0.9000 	 1.1000 	 0.5529 	 113.4321 	 2.0138 	 -8.1454 	 2.4725 	 11.8395 	 49.8841 	 19.9849 	 3.4000
  0.9000 	 1.2000 	 0.6901 	 96.8736 	 1.8613 	 -3.3402 	 2.3832 	 16.7083 	 45.1517 	 20.0485 	 3.4000
  0.9000 	 1.3000 	 0.8063 	 87.6153 	 1.7302 	 0.6097 	 2.3114 	 20.3972 	 40.6039 	 19.7876 	 3.4000
  0.9000 	 1.4000 	 0.9058 	 81.5505 	 1.6161 	 4.2450 	 2.2527 	 23.4366 	 36.1771 	 19.1916 	 3.4000
  0.9000 	 1.5000 	 0.9921 	 77.2249 	 1.5155 	 7.8008 	 2.2043 	 26.0358 	 31.7971 	 18.2350 	 3.4000
  0.9000 	 1.6000 	 1.0676 	 73.9664 	 1.4259 	 11.4397 	 2.1639 	 28.3061 	 27.3673 	 16.8664 	 3.4000
  0.9000 	 1.7000 	 1.1342 	 71.4151 	 1.3455 	 15.3315 	 2.1298 	 30.3168 	 22.7406 	 14.9853 	 3.4000
  0.9000 	 1.8000 	 1.1934 	 69.3590 	 1.2726 	 19.7419 	 2.1008 	 32.1152 	 17.6379 	 12.3733 	 3.4000
  0.9000 	 1.9000 	 1.2464 	 67.6643 	 1.2062 	 25.3466 	 2.0759 	 33.7360 	 11.2760 	 8.3894 	 3.4000
  0.9000 	 1.1000 	 0.5044 	 125.2362 	 2.0671 	 -10.1372 	 2.5249 	 9.3915 	 50.1549 	 19.5287 	 3.5000
  0.9000 	 1.2000 	 0.6457 	 103.4077 	 1.9109 	 -4.6264 	 2.4322 	 14.9662 	 45.3960 	 19.5926 	 3.5000
  0.9000 	 1.3000 	 0.7653 	 92.2594 	 1.7767 	 -0.4099 	 2.3576 	 18.9260 	 40.8173 	 19.3359 	 3.5000
  0.9000 	 1.4000 	 0.8678 	 85.2201 	 1.6600 	 3.3704 	 2.2967 	 22.1180 	 36.3552 	 18.7476 	 3.5000
  0.9000 	 1.5000 	 0.9566 	 80.3030 	 1.5571 	 7.0169 	 2.2464 	 24.8190 	 31.9348 	 17.8021 	 3.5000
  0.9000 	 1.6000 	 1.0343 	 76.6488 	 1.4656 	 10.7162 	 2.2043 	 27.1639 	 27.4576 	 16.4477 	 3.5000
  0.9000 	 1.7000 	 1.1029 	 73.8151 	 1.3835 	 14.6494 	 2.1688 	 29.2328 	 22.7719 	 14.5834 	 3.5000
  0.9000 	 1.8000 	 1.1638 	 71.5479 	 1.3092 	 19.0910 	 2.1386 	 31.0786 	 17.5863 	 11.9877 	 3.5000
  0.9000 	 1.9000 	 1.2184 	 69.6896 	 1.2415 	 24.7441 	 2.1127 	 32.7393 	 11.0619 	 7.9952 	 3.5000
  0.9000 	 1.1000 	 0.4560 	 142.5921 	 2.1202 	 -12.9238 	 2.5771 	 6.1703 	 50.4108 	 19.0941 	 3.6000
  0.9000 	 1.2000 	 0.6013 	 111.1402 	 1.9602 	 -6.0936 	 2.4811 	 13.0646 	 45.6257 	 19.1582 	 3.6000
  0.9000 	 1.3000 	 0.7243 	 97.4482 	 1.8230 	 -1.5208 	 2.4037 	 17.3845 	 41.0164 	 18.9053 	 3.6000
  0.9000 	 1.4000 	 0.8297 	 89.2046 	 1.7035 	 2.4368 	 2.3405 	 20.7609 	 36.5191 	 18.3242 	 3.6000
  0.9000 	 1.5000 	 0.9211 	 83.5873 	 1.5985 	 6.1902 	 2.2882 	 23.5788 	 32.0582 	 17.3887 	 3.6000
  0.9000 	 1.6000 	 1.0010 	 79.4773 	 1.5050 	 9.9599 	 2.2445 	 26.0069 	 27.5329 	 16.0470 	 3.6000
  0.9000 	 1.7000 	 1.0715 	 76.3242 	 1.4212 	 13.9422 	 2.2076 	 28.1393 	 22.7868 	 14.1971 	 3.6000
  0.9000 	 1.8000 	 1.1342 	 73.8213 	 1.3455 	 18.4224 	 2.1762 	 30.0361 	 17.5152 	 11.6137 	 3.6000
  0.9000 	 1.9000 	 1.1903 	 71.7823 	 1.2765 	 24.1373 	 2.1493 	 31.7391 	 10.8143 	 7.6017 	 3.6000
  0.9000 	 1.2000 	 0.5569 	 120.6611 	 2.0094 	 -7.8280 	 2.5298 	 10.9158 	 45.8421 	 18.7437 	 3.7000
  0.9000 	 1.3000 	 0.6833 	 103.3358 	 1.8689 	 -2.7453 	 2.4496 	 15.7491 	 41.2024 	 18.4944 	 3.7000
  0.9000 	 1.4000 	 0.7916 	 93.5685 	 1.7469 	 1.4350 	 2.3840 	 19.3548 	 36.6701 	 17.9198 	 3.7000
  0.9000 	 1.5000 	 0.8855 	 87.1119 	 1.6395 	 5.3160 	 2.3298 	 22.3094 	 32.1685 	 16.9935 	 3.7000
  0.9000 	 1.6000 	 0.9677 	 82.4723 	 1.5441 	 9.1681 	 2.2844 	 24.8313 	 27.5947 	 15.6632 	 3.7000
  0.9000 	 1.7000 	 1.0402 	 78.9558 	 1.4587 	 13.2078 	 2.2462 	 27.0336 	 22.7872 	 13.8258 	 3.7000
  0.9000 	 1.8000 	 1.1046 	 76.1887 	 1.3814 	 17.7344 	 2.2136 	 28.9855 	 17.4261 	 11.2511 	 3.7000
  0.9000 	 1.9000 	 1.1623 	 73.9494 	 1.3111 	 23.5245 	 2.1856 	 30.7336 	 10.5340 	 7.2091 	 3.7000
  0.9000 	 1.2000 	 0.5125 	 133.2468 	 2.0583 	 -10.0227 	 2.5783 	 8.3251 	 46.0463 	 18.3478 	 3.8000
  0.9000 	 1.3000 	 0.6423 	 110.1563 	 1.9147 	 -4.1180 	 2.4953 	 13.9836 	 41.3766 	 18.1017 	 3.8000
  0.9000 	 1.4000 	 0.7536 	 98.3985 	 1.7900 	 0.3525 	 2.4274 	 17.8856 	 36.8094 	 17.5331 	 3.8000
  0.9000 	 1.5000 	 0.8500 	 90.9192 	 1.6803 	 4.3882 	 2.3712 	 21.0035 	 32.2671 	 16.6153 	 3.8000
  0.9000 	 1.6000 	 0.9344 	 85.6581 	 1.5830 	 8.3372 	 2.3242 	 23.6326 	 27.6445 	 15.2954 	 3.8000
  0.9000 	 1.7000 	 1.0088 	 81.7254 	 1.4958 	 12.4439 	 2.2845 	 25.9126 	 22.7743 	 13.4687 	 3.8000
  0.9000 	 1.8000 	 1.0750 	 78.6608 	 1.4171 	 17.0250 	 2.2507 	 27.9245 	 17.3208 	 10.8995 	 3.8000
  0.9000 	 1.9000 	 1.1342 	 76.1986 	 1.3455 	 22.9040 	 2.2217 	 29.7210 	 10.2215 	 6.8170 	 3.8000
  0.9000 	 1.2000 	 0.4681 	 153.3245 	 2.1070 	 -13.3803 	 2.6267 	 4.5887 	 46.2392 	 17.9691 	 3.9000
  0.9000 	 1.3000 	 0.6013 	 118.2968 	 1.9602 	 -5.6985 	 2.5408 	 12.0275 	 41.5398 	 17.7260 	 3.9000
  0.9000 	 1.4000 	 0.7155 	 103.8151 	 1.8328 	 -0.8292 	 2.4706 	 16.3339 	 36.9380 	 17.1631 	 3.9000
  0.9000 	 1.5000 	 0.8145 	 95.0638 	 1.7209 	 3.3987 	 2.4124 	 19.6517 	 32.3550 	 16.2531 	 3.9000
  0.9000 	 1.6000 	 0.9011 	 89.0649 	 1.6216 	 7.4628 	 2.3637 	 22.4053 	 27.6833 	 14.9425 	 3.9000
  0.9000 	 1.7000 	 0.9775 	 84.6515 	 1.5327 	 11.6477 	 2.3226 	 24.7727 	 22.7495 	 13.1250 	 3.9000
  0.9000 	 1.8000 	 1.0454 	 81.2499 	 1.4524 	 16.2920 	 2.2876 	 26.8505 	 17.2006 	 10.5586 	 3.9000
  0.9000 	 1.9000 	 1.1062 	 78.5388 	 1.3795 	 22.2746 	 2.2575 	 28.6995 	 9.8765 	 6.4249 	 3.9000
  0.9000 	 1.3000 	 0.5603 	 128.4943 	 2.0056 	 -7.6033 	 2.5862 	 9.7629 	 41.6929 	 17.3662 	 4.0000
  0.9000 	 1.4000 	 0.6774 	 109.9952 	 1.8755 	 -2.1377 	 2.5136 	 14.6708 	 37.0567 	 16.8086 	 4.0000
  0.9000 	 1.5000 	 0.7789 	 99.6178 	 1.7613 	 2.3361 	 2.4534 	 18.2419 	 32.4333 	 15.9058 	 4.0000
  0.9000 	 1.6000 	 0.8678 	 92.7297 	 1.6600 	 6.5391 	 2.4031 	 21.1428 	 27.7121 	 14.6037 	 4.0000
  0.9000 	 1.7000 	 0.9461 	 87.7564 	 1.5693 	 10.8156 	 2.3605 	 23.6096 	 22.7139 	 12.7940 	 4.0000
  0.9000 	 1.8000 	 1.0158 	 83.9705 	 1.4876 	 15.5329 	 2.3243 	 25.7607 	 17.0667 	 10.2278 	 4.0000
  0.9000 	 1.9000 	 1.0781 	 80.9800 	 1.4133 	 21.6350 	 2.2932 	 27.6668 	 9.4981 	 6.0318 	 4.0000
  0.9000 	 1.3000 	 0.5193 	 142.5855 	 2.0508 	 -10.1344 	 2.6315 	 6.8868 	 41.8369 	 17.0212 	 4.1000
  0.9000 	 1.4000 	 0.6394 	 117.2180 	 1.9180 	 -3.6180 	 2.5565 	 12.8506 	 37.1665 	 16.4686 	 4.1000
  0.9000 	 1.5000 	 0.7434 	 104.6799 	 1.8014 	 1.1847 	 2.4943 	 16.7572 	 32.5026 	 15.5725 	 4.1000
  0.9000 	 1.6000 	 0.8345 	 96.7002 	 1.6981 	 5.5585 	 2.4423 	 19.8366 	 27.7320 	 14.2781 	 4.1000
  0.9000 	 1.7000 	 0.9148 	 91.0670 	 1.6057 	 9.9433 	 2.3983 	 22.4183 	 22.6686 	 12.4751 	 4.1000
  0.9000 	 1.8000 	 0.9862 	 86.8398 	 1.5225 	 14.7447 	 2.3608 	 24.6516 	 16.9200 	 9.9068 	 4.1000
  0.9000 	 1.9000 	 1.0501 	 83.5340 	 1.4469 	 20.9841 	 2.3286 	 26.6204 	 9.0846 	 5.6363 	 4.1000
  0.9000 	 1.3000 	 0.4783 	 174.5831 	 2.0958 	 -15.7236 	 2.6766 	 0.9666 	 41.9723 	 16.6902 	 4.2000
  0.9000 	 1.4000 	 0.6013 	 125.9746 	 1.9602 	 -5.3513 	 2.5992 	 10.7908 	 37.2681 	 16.1422 	 4.2000
  0.9000 	 1.5000 	 0.7079 	 110.3912 	 1.8414 	 -0.0787 	 2.5350 	 15.1737 	 32.5640 	 15.2525 	 4.2000
  0.9000 	 1.6000 	 0.8012 	 101.0384 	 1.7361 	 4.5107 	 2.4813 	 18.4758 	 27.7437 	 13.9651 	 4.2000
  0.9000 	 1.7000 	 0.8834 	 94.6168 	 1.6419 	 9.0250 	 2.4358 	 21.1927 	 22.6143 	 12.1676 	 4.2000
  0.9000 	 1.8000 	 0.9566 	 89.8782 	 1.5571 	 13.9240 	 2.3971 	 23.5192 	 16.7616 	 9.5952 	 4.2000
  0.9000 	 1.9000 	 1.0220 	 86.2144 	 1.4802 	 20.3208 	 2.3638 	 25.5576 	 8.6333 	 5.2367 	 4.2000
  0.9000 	 1.4000 	 0.5633 	 137.3116 	 2.0024 	 -7.5169 	 2.6418 	 8.3117 	 37.3622 	 15.8286 	 4.3000
  0.9000 	 1.5000 	 0.6724 	 116.9670 	 1.8812 	 -1.4905 	 2.5756 	 13.4543 	 32.6179 	 14.9448 	 4.3000
  0.9000 	 1.6000 	 0.7678 	 105.8277 	 1.7738 	 3.3817 	 2.5201 	 17.0456 	 27.7480 	 13.6639 	 4.3000
  0.9000 	 1.7000 	 0.8521 	 98.4480 	 1.6779 	 8.0538 	 2.4732 	 19.9248 	 22.5519 	 11.8711 	 4.3000
  0.9000 	 1.8000 	 0.9270 	 93.1105 	 1.5916 	 13.0662 	 2.4332 	 22.3587 	 16.5921 	 9.2925 	 4.3000
  0.9000 	 1.9000 	 0.9940 	 89.0372 	 1.5133 	 19.6444 	 2.3989 	 24.4750 	 8.1401 	 4.8306 	 4.3000
  0.9000 	 1.4000 	 0.5252 	 154.6993 	 2.0443 	 -10.7306 	 2.6842 	 4.7966 	 37.4492 	 15.5271 	 4.4000
  0.9000 	 1.5000 	 0.6368 	 124.7674 	 1.9208 	 -3.1130 	 2.6160 	 11.5358 	 32.6651 	 14.6489 	 4.4000
  0.9000 	 1.6000 	 0.7345 	 111.1860 	 1.8114 	 2.1512 	 2.5588 	 15.5251 	 27.7454 	 13.3739 	 4.4000
  0.9000 	 1.7000 	 0.8207 	 102.6155 	 1.7138 	 7.0199 	 2.5104 	 18.6048 	 22.4821 	 11.5848 	 4.4000
  0.9000 	 1.8000 	 0.8974 	 96.5672 	 1.6259 	 12.1660 	 2.4692 	 21.1643 	 16.4124 	 8.9983 	 4.4000
  0.9000 	 1.9000 	 0.9659 	 92.0214 	 1.5462 	 18.9543 	 2.4337 	 23.3688 	 7.5989 	 4.4145 	 4.4000
  0.9000 	 1.5000 	 0.6013 	 134.4923 	 1.9602 	 -5.0709 	 2.6563 	 9.2930 	 32.7061 	 14.3639 	 4.5000
  0.9000 	 1.6000 	 0.7012 	 117.2883 	 1.8489 	 0.7882 	 2.5974 	 13.8826 	 27.7367 	 13.0944 	 4.5000
  0.9000 	 1.7000 	 0.7894 	 107.1924 	 1.7494 	 5.9106 	 2.5475 	 17.2190 	 22.4055 	 11.3084 	 4.5000
  0.9000 	 1.8000 	 0.8678 	 100.2869 	 1.6600 	 11.2164 	 2.5050 	 19.9286 	 16.2228 	 8.7122 	 4.5000
  0.9000 	 1.9000 	 0.9379 	 95.1904 	 1.5789 	 18.2507 	 2.4684 	 22.2345 	 7.0008 	 3.9838 	 4.5000
  1.0000 	 1.0000 	 0.6546 	 90.3926 	 1.8214 	 -8.2416 	 2.2996 	 16.5380 	 49.7649 	 24.7796 	 2.9000
  1.0000 	 1.1000 	 0.7951 	 80.1508 	 1.6618 	 -4.4839 	 2.2077 	 20.7840 	 45.1808 	 25.2679 	 2.9000
  1.0000 	 1.2000 	 0.9122 	 73.8920 	 1.5259 	 -1.1472 	 2.1351 	 24.2338 	 40.8482 	 25.3810 	 2.9000
  1.0000 	 1.3000 	 1.0112 	 69.6208 	 1.4083 	 2.0414 	 2.0768 	 27.1576 	 36.7095 	 25.1162 	 2.9000
  1.0000 	 1.4000 	 1.0961 	 66.5018 	 1.3050 	 5.2349 	 2.0294 	 29.6922 	 32.7043 	 24.4573 	 2.9000
  1.0000 	 1.5000 	 1.1697 	 64.1162 	 1.2132 	 8.5531 	 1.9903 	 31.9210 	 28.7648 	 23.3679 	 2.9000
  1.0000 	 1.6000 	 1.2341 	 62.2285 	 1.1308 	 12.1223 	 1.9578 	 33.9011 	 24.8053 	 21.7788 	 2.9000
  1.0000 	 1.7000 	 1.2909 	 60.6955 	 1.0559 	 16.1147 	 1.9304 	 35.6739 	 20.7006 	 19.5592 	 2.9000
  1.0000 	 1.8000 	 1.3414 	 59.4246 	 0.9873 	 20.8338 	 1.9071 	 37.2713 	 16.2228 	 16.4375 	 2.9000
  1.0000 	 1.9000 	 1.3866 	 58.3531 	 0.9240 	 27.0444 	 1.8872 	 38.7185 	 10.7753 	 11.6741 	 2.9000
  1.0000 	 1.0000 	 0.6013 	 97.6936 	 1.8811 	 -9.4638 	 2.3571 	 14.6442 	 50.2073 	 24.1080 	 3.0000
  1.0000 	 1.1000 	 0.7467 	 85.0186 	 1.7172 	 -5.3834 	 2.2610 	 19.2069 	 45.6081 	 24.5903 	 3.0000
  1.0000 	 1.2000 	 0.8678 	 77.6266 	 1.5778 	 -1.8815 	 2.1851 	 22.8236 	 41.2570 	 24.7051 	 3.0000
  1.0000 	 1.3000 	 0.9702 	 72.7062 	 1.4573 	 1.4056 	 2.1242 	 25.8556 	 37.0976 	 24.4501 	 3.0000
  1.0000 	 1.4000 	 1.0581 	 69.1692 	 1.3516 	 4.6586 	 2.0746 	 28.4688 	 33.0703 	 23.8101 	 3.0000
  1.0000 	 1.5000 	 1.1342 	 66.4930 	 1.2579 	 8.0075 	 2.0337 	 30.7589 	 29.1079 	 22.7514 	 3.0000
  1.0000 	 1.6000 	 1.2008 	 64.3923 	 1.1737 	 11.5804 	 1.9996 	 32.7890 	 25.1257 	 21.2086 	 3.0000
  1.0000 	 1.7000 	 1.2596 	 62.6966 	 1.0975 	 15.5452 	 1.9709 	 34.6041 	 20.9996 	 19.0589 	 3.0000
  1.0000 	 1.8000 	 1.3118 	 61.2977 	 1.0277 	 20.1904 	 1.9465 	 36.2381 	 16.5055 	 16.0477 	 3.0000
  1.0000 	 1.9000 	 1.3586 	 60.1229 	 0.9635 	 26.2279 	 1.9256 	 37.7174 	 11.0648 	 11.4895 	 3.0000
  1.0000 	 1.0000 	 0.5480 	 106.5949 	 1.9405 	 -10.9102 	 2.4143 	 12.5642 	 50.6224 	 23.4744 	 3.1000
  1.0000 	 1.1000 	 0.6982 	 90.5202 	 1.7722 	 -6.3913 	 2.3142 	 17.5595 	 46.0077 	 23.9509 	 3.1000
  1.0000 	 1.2000 	 0.8234 	 81.7032 	 1.6293 	 -2.6878 	 2.2350 	 21.3792 	 41.6376 	 24.0670 	 3.1000
  1.0000 	 1.3000 	 0.9293 	 76.0064 	 1.5058 	 0.7150 	 2.1714 	 24.5355 	 37.4565 	 23.8205 	 3.1000
  1.0000 	 1.4000 	 1.0200 	 71.9840 	 1.3977 	 4.0385 	 2.1195 	 27.2359 	 33.4058 	 23.1974 	 3.1000
  1.0000 	 1.5000 	 1.0987 	 68.9773 	 1.3019 	 7.4270 	 2.0768 	 29.5924 	 29.4187 	 22.1654 	 3.1000
  1.0000 	 1.6000 	 1.1675 	 66.6377 	 1.2161 	 11.0130 	 2.0411 	 31.6758 	 25.4109 	 20.6628 	 3.1000
  1.0000 	 1.7000 	 1.2283 	 64.7618 	 1.1384 	 14.9627 	 2.0110 	 33.5354 	 21.2589 	 18.5728 	 3.1000
  1.0000 	 1.8000 	 1.2822 	 63.2220 	 1.0675 	 19.5538 	 1.9855 	 35.2075 	 16.7402 	 15.6537 	 3.1000
  1.0000 	 1.9000 	 1.3305 	 61.9344 	 1.0023 	 25.4610 	 1.9637 	 36.7200 	 11.2851 	 11.2590 	 3.1000
  1.0000 	 1.0000 	 0.4947 	 118.0354 	 1.9995 	 -12.6985 	 2.4714 	 10.1772 	 51.0125 	 22.8757 	 3.2000
  1.0000 	 1.1000 	 0.6498 	 96.8512 	 1.8268 	 -7.5312 	 2.3671 	 15.8152 	 46.3821 	 23.3464 	 3.2000
  1.0000 	 1.2000 	 0.7789 	 86.1962 	 1.6803 	 -3.5740 	 2.2846 	 19.8894 	 41.9926 	 23.4634 	 3.2000
  1.0000 	 1.3000 	 0.8883 	 79.5581 	 1.5539 	 -0.0334 	 2.2183 	 23.1911 	 37.7893 	 23.2245 	 3.2000
  1.0000 	 1.4000 	 0.9820 	 74.9677 	 1.4433 	 3.3732 	 2.1642 	 25.9895 	 33.7142 	 22.6163 	 3.2000
  1.0000 	 1.5000 	 1.0632 	 71.5829 	 1.3455 	 6.8106 	 2.1195 	 28.4186 	 29.7008 	 21.6080 	 3.2000
  1.0000 	 1.6000 	 1.1342 	 68.9744 	 1.2579 	 10.4188 	 2.0823 	 30.5593 	 25.6651 	 20.1405 	 3.2000
  1.0000 	 1.7000 	 1.1969 	 66.8978 	 1.1787 	 14.3643 	 2.0509 	 32.4659 	 21.4835 	 18.1017 	 3.2000
  1.0000 	 1.8000 	 1.2526 	 65.2030 	 1.1066 	 18.9179 	 2.0242 	 34.1779 	 16.9332 	 15.2600 	 3.2000
  1.0000 	 1.9000 	 1.3025 	 63.7920 	 1.0404 	 24.7283 	 2.0014 	 35.7249 	 11.4464 	 10.9966 	 3.2000
  1.0000 	 1.0000 	 0.4414 	 134.3431 	 2.0582 	 -15.1356 	 2.5283 	 7.1731 	 51.3801 	 22.3087 	 3.3000
  1.0000 	 1.1000 	 0.6013 	 104.3156 	 1.8811 	 -8.8415 	 2.4199 	 13.9323 	 46.7338 	 22.7738 	 3.3000
  1.0000 	 1.2000 	 0.7345 	 91.2060 	 1.7310 	 -4.5522 	 2.3340 	 18.3392 	 42.3246 	 22.8914 	 3.3000
  1.0000 	 1.3000 	 0.8473 	 83.4078 	 1.6016 	 -0.8444 	 2.2649 	 21.8149 	 38.0986 	 22.6593 	 3.3000
  1.0000 	 1.4000 	 0.9439 	 78.1461 	 1.4885 	 2.6604 	 2.2086 	 24.7249 	 33.9983 	 22.0644 	 3.3000
  1.0000 	 1.5000 	 1.0276 	 74.3258 	 1.3885 	 6.1571 	 2.1620 	 27.2343 	 29.9575 	 21.0772 	 3.3000
  1.0000 	 1.6000 	 1.1009 	 71.4131 	 1.2992 	 9.7965 	 2.1232 	 29.4370 	 25.8918 	 19.6405 	 3.3000
  1.0000 	 1.7000 	 1.1656 	 69.1127 	 1.2185 	 13.7477 	 2.0905 	 31.3938 	 21.6774 	 17.6461 	 3.3000
  1.0000 	 1.8000 	 1.2230 	 67.2465 	 1.1451 	 18.2779 	 2.0626 	 33.1477 	 17.0897 	 14.8697 	 3.3000
  1.0000 	 1.9000 	 1.2744 	 65.7003 	 1.0778 	 24.0187 	 2.0388 	 34.7307 	 11.5569 	 10.7120 	 3.3000
  1.0000 	 1.0000 	 0.3882 	 172.2014 	 2.1167 	 -20.6036 	 2.5851 	 1.1674 	 51.7271 	 21.7710 	 3.4000
  1.0000 	 1.1000 	 0.5529 	 113.4321 	 1.9351 	 -10.3910 	 2.4725 	 11.8395 	 47.0648 	 22.2306 	 3.4000
  1.0000 	 1.2000 	 0.6901 	 96.8736 	 1.7813 	 -5.6402 	 2.3832 	 16.7083 	 42.6357 	 22.3485 	 3.4000
  1.0000 	 1.3000 	 0.8063 	 87.6153 	 1.6489 	 -1.7252 	 2.3114 	 20.3972 	 38.3867 	 22.1224 	 3.4000
  1.0000 	 1.4000 	 0.9058 	 81.5505 	 1.5333 	 1.8970 	 2.2527 	 23.4366 	 34.2606 	 21.5396 	 3.4000
  1.0000 	 1.5000 	 0.9921 	 77.2249 	 1.4312 	 5.4647 	 2.2043 	 26.0358 	 30.1913 	 20.5711 	 3.4000
  1.0000 	 1.6000 	 1.0676 	 73.9664 	 1.3400 	 9.1445 	 2.1639 	 28.3061 	 26.0942 	 19.1617 	 3.4000
  1.0000 	 1.7000 	 1.1342 	 71.4151 	 1.2579 	 13.1109 	 2.1298 	 30.3168 	 21.8441 	 17.2059 	 3.4000
  1.0000 	 1.8000 	 1.1934 	 69.3590 	 1.1832 	 17.6300 	 2.1008 	 32.1152 	 17.2141 	 14.4851 	 3.4000
  1.0000 	 1.9000 	 1.2464 	 67.6643 	 1.1148 	 23.3238 	 2.0759 	 33.7360 	 11.6229 	 10.4123 	 3.4000
  1.0000 	 1.1000 	 0.5044 	 125.2362 	 1.9888 	 -12.3229 	 2.5249 	 9.3915 	 47.3769 	 21.7143 	 3.5000
  1.0000 	 1.2000 	 0.6457 	 103.4077 	 1.8314 	 -6.8662 	 2.4322 	 14.9662 	 42.9279 	 21.8324 	 3.5000
  1.0000 	 1.3000 	 0.7653 	 92.2594 	 1.6959 	 -2.6857 	 2.3576 	 18.9260 	 38.6556 	 21.6117 	 3.5000
  1.0000 	 1.4000 	 0.8678 	 85.2201 	 1.5778 	 1.0783 	 2.2967 	 22.1180 	 34.5032 	 21.0397 	 3.5000
  1.0000 	 1.5000 	 0.9566 	 80.3030 	 1.4735 	 4.7308 	 2.2464 	 24.8190 	 30.4046 	 20.0882 	 3.5000
  1.0000 	 1.6000 	 1.0343 	 76.6488 	 1.3805 	 8.4609 	 2.2043 	 27.1639 	 26.2747 	 18.7030 	 3.5000
  1.0000 	 1.7000 	 1.1029 	 73.8151 	 1.2968 	 12.4517 	 2.1688 	 29.2328 	 21.9868 	 16.7811 	 3.5000
  1.0000 	 1.8000 	 1.1638 	 71.5479 	 1.2207 	 16.9710 	 2.1386 	 31.0786 	 17.3102 	 14.1076 	 3.5000
  1.0000 	 1.9000 	 1.2184 	 69.6896 	 1.1512 	 22.6369 	 2.1127 	 32.7393 	 11.6496 	 10.1024 	 3.5000
  1.0000 	 1.1000 	 0.4560 	 142.5921 	 2.0423 	 -15.0527 	 2.5771 	 6.1703 	 47.6717 	 21.2231 	 3.6000
  1.0000 	 1.2000 	 0.6013 	 111.1402 	 1.8811 	 -8.2765 	 2.4811 	 13.0646 	 43.2027 	 21.3411 	 3.6000
  1.0000 	 1.3000 	 0.7243 	 97.4482 	 1.7426 	 -3.7407 	 2.4037 	 17.3845 	 38.9070 	 21.1252 	 3.6000
  1.0000 	 1.4000 	 0.8297 	 89.2046 	 1.6219 	 0.1979 	 2.3405 	 20.7609 	 34.7281 	 20.5630 	 3.6000
  1.0000 	 1.5000 	 0.9211 	 83.5873 	 1.5155 	 3.9520 	 2.2882 	 23.5788 	 30.5995 	 19.6268 	 3.6000
  1.0000 	 1.6000 	 1.0010 	 79.4773 	 1.4206 	 7.7436 	 2.2445 	 26.0069 	 26.4356 	 18.2633 	 3.6000
  1.0000 	 1.7000 	 1.0715 	 76.3242 	 1.3353 	 11.7682 	 2.2076 	 28.1393 	 22.1079 	 16.3712 	 3.6000
  1.0000 	 1.8000 	 1.1342 	 73.8213 	 1.2579 	 16.2980 	 2.1762 	 30.0361 	 17.3808 	 13.7381 	 3.6000
  1.0000 	 1.9000 	 1.1903 	 71.7823 	 1.1871 	 21.9530 	 2.1493 	 31.7391 	 11.6410 	 9.7861 	 3.6000
  1.0000 	 1.2000 	 0.5569 	 120.6611 	 1.9306 	 -9.9569 	 2.5298 	 10.9158 	 43.4617 	 20.8726 	 3.7000
  1.0000 	 1.3000 	 0.6833 	 103.3358 	 1.7891 	 -4.9121 	 2.4496 	 15.7491 	 39.1426 	 20.6612 	 3.7000
  1.0000 	 1.4000 	 0.7916 	 93.5685 	 1.6658 	 -0.7532 	 2.3840 	 19.3548 	 34.9367 	 20.1080 	 3.7000
  1.0000 	 1.5000 	 0.8855 	 87.1119 	 1.5571 	 3.1238 	 2.3298 	 22.3094 	 30.7778 	 19.1857 	 3.7000
  1.0000 	 1.6000 	 0.9677 	 82.4723 	 1.4603 	 6.9897 	 2.2844 	 24.8313 	 26.5789 	 17.8417 	 3.7000
  1.0000 	 1.7000 	 1.0402 	 78.9558 	 1.3734 	 11.0579 	 2.2462 	 27.0336 	 22.2098 	 15.9758 	 3.7000
  1.0000 	 1.8000 	 1.1046 	 76.1887 	 1.2946 	 15.6082 	 2.2136 	 28.9855 	 17.4289 	 13.3772 	 3.7000
  1.0000 	 1.9000 	 1.1623 	 73.9494 	 1.2227 	 21.2675 	 2.1856 	 30.7336 	 11.6006 	 9.4660 	 3.7000
  1.0000 	 1.2000 	 0.5125 	 133.2468 	 1.9799 	 -12.1004 	 2.5783 	 8.3251 	 43.7062 	 20.4255 	 3.8000
  1.0000 	 1.3000 	 0.6423 	 110.1563 	 1.8352 	 -6.2344 	 2.4953 	 13.9836 	 39.3635 	 20.2180 	 3.8000
  1.0000 	 1.4000 	 0.7536 	 98.3985 	 1.7093 	 -1.7874 	 2.4274 	 17.8856 	 35.1307 	 19.6731 	 3.8000
  1.0000 	 1.5000 	 0.8500 	 90.9192 	 1.5984 	 2.2401 	 2.3712 	 21.0035 	 30.9409 	 18.7634 	 3.8000
  1.0000 	 1.6000 	 0.9344 	 85.6581 	 1.4998 	 6.1956 	 2.3242 	 23.6326 	 26.7064 	 17.4370 	 3.8000
  1.0000 	 1.7000 	 1.0088 	 81.7254 	 1.4112 	 10.3182 	 2.2845 	 25.9126 	 22.2943 	 15.5944 	 3.8000
  1.0000 	 1.8000 	 1.0750 	 78.6608 	 1.3310 	 14.8991 	 2.2507 	 27.9245 	 17.4565 	 13.0253 	 3.8000
  1.0000 	 1.9000 	 1.1342 	 76.1986 	 1.2579 	 20.5768 	 2.2217 	 29.7210 	 11.5311 	 9.1442 	 3.8000
  1.0000 	 1.2000 	 0.4681 	 153.3245 	 2.0289 	 -15.4094 	 2.6267 	 4.5887 	 43.9373 	 19.9981 	 3.9000
  1.0000 	 1.3000 	 0.6013 	 118.2968 	 1.8811 	 -7.7667 	 2.5408 	 12.0275 	 39.5712 	 19.7943 	 3.9000
  1.0000 	 1.4000 	 0.7155 	 103.8151 	 1.7526 	 -2.9230 	 2.4706 	 16.3339 	 35.3112 	 19.2569 	 3.9000
  1.0000 	 1.5000 	 0.8145 	 95.0638 	 1.6395 	 1.2928 	 2.4124 	 19.6517 	 31.0903 	 18.3589 	 3.9000
  1.0000 	 1.6000 	 0.9011 	 89.0649 	 1.5389 	 5.3569 	 2.3637 	 22.4053 	 26.8195 	 17.0484 	 3.9000
  1.0000 	 1.7000 	 0.9775 	 84.6515 	 1.4487 	 9.5462 	 2.3226 	 24.7727 	 22.3631 	 15.2265 	 3.9000
  1.0000 	 1.8000 	 1.0454 	 81.2499 	 1.3671 	 14.1680 	 2.2876 	 26.8505 	 17.4658 	 12.6826 	 3.9000
  1.0000 	 1.9000 	 1.1062 	 78.5388 	 1.2927 	 19.8775 	 2.2575 	 28.6995 	 11.4348 	 8.8221 	 3.9000
  1.0000 	 1.3000 	 0.5603 	 128.4943 	 1.9268 	 -9.6258 	 2.5862 	 9.7629 	 39.7666 	 19.3887 	 4.0000
  1.0000 	 1.4000 	 0.6774 	 109.9952 	 1.7957 	 -4.1875 	 2.5136 	 14.6708 	 35.4795 	 18.8583 	 4.0000
  1.0000 	 1.5000 	 0.7789 	 99.6178 	 1.6803 	 0.2709 	 2.4534 	 18.2419 	 31.2272 	 17.9710 	 4.0000
  1.0000 	 1.6000 	 0.8678 	 92.7297 	 1.5778 	 4.4677 	 2.4031 	 21.1428 	 26.9195 	 16.6750 	 4.0000
  1.0000 	 1.7000 	 0.9461 	 87.7564 	 1.4859 	 8.7381 	 2.3605 	 23.6096 	 22.4178 	 14.8715 	 4.0000
  1.0000 	 1.8000 	 1.0158 	 83.9705 	 1.4028 	 13.4117 	 2.3243 	 25.7607 	 17.4584 	 12.3490 	 4.0000
  1.0000 	 1.9000 	 1.0781 	 80.9800 	 1.3272 	 19.1663 	 2.2932 	 27.6668 	 11.3137 	 8.5005 	 4.0000
  1.0000 	 1.3000 	 0.5193 	 142.5855 	 1.9723 	 -12.1132 	 2.6315 	 6.8868 	 39.9507 	 19.0000 	 4.1000
  1.0000 	 1.4000 	 0.6394 	 117.2180 	 1.8385 	 -5.6256 	 2.5565 	 12.8506 	 35.6365 	 18.4762 	 4.1000
  1.0000 	 1.5000 	 0.7434 	 104.6799 	 1.7209 	 -0.8415 	 2.4943 	 16.7572 	 31.3527 	 17.5987 	 4.1000
  1.0000 	 1.6000 	 0.8345 	 96.7002 	 1.6164 	 3.5206 	 2.4423 	 19.8366 	 27.0078 	 16.3160 	 4.1000
  1.0000 	 1.7000 	 0.9148 	 91.0670 	 1.5228 	 7.8894 	 2.3983 	 22.4183 	 22.4597 	 14.5289 	 4.1000
  1.0000 	 1.8000 	 0.9862 	 86.8398 	 1.4383 	 12.6272 	 2.3608 	 24.6516 	 17.4359 	 12.0244 	 4.1000
  1.0000 	 1.9000 	 1.0501 	 83.5340 	 1.3614 	 18.4401 	 2.3286 	 26.6204 	 11.1693 	 8.1803 	 4.1000
  1.0000 	 1.3000 	 0.4783 	 174.5831 	 2.0176 	 -17.6607 	 2.6766 	 0.9666 	 40.1245 	 18.6272 	 4.2000
  1.0000 	 1.4000 	 0.6013 	 125.9746 	 1.8811 	 -7.3186 	 2.5992 	 10.7908 	 35.7832 	 18.1095 	 4.2000
  1.0000 	 1.5000 	 0.7079 	 110.3912 	 1.7612 	 -2.0674 	 2.5350 	 15.1737 	 31.4678 	 17.2411 	 4.2000
  1.0000 	 1.6000 	 0.8012 	 101.0384 	 1.6548 	 2.5052 	 2.4813 	 18.4758 	 27.0852 	 15.9706 	 4.2000
  1.0000 	 1.7000 	 0.8834 	 94.6168 	 1.5595 	 6.9944 	 2.4358 	 21.1927 	 22.4898 	 14.1983 	 4.2000
  1.0000 	 1.8000 	 0.9566 	 89.8782 	 1.4735 	 11.8104 	 2.3971 	 23.5192 	 17.3995 	 11.7088 	 4.2000
  1.0000 	 1.9000 	 1.0220 	 86.2144 	 1.3953 	 17.6958 	 2.3638 	 25.5576 	 11.0028 	 7.8618 	 4.2000
  1.0000 	 1.4000 	 0.5633 	 137.3116 	 1.9236 	 -9.4455 	 2.6418 	 8.3117 	 35.9204 	 17.7572 	 4.3000
  1.0000 	 1.5000 	 0.6724 	 116.9670 	 1.8014 	 -3.4431 	 2.5756 	 13.4543 	 31.5733 	 16.8974 	 4.3000
  1.0000 	 1.6000 	 0.7678 	 105.8277 	 1.6930 	 1.4076 	 2.5201 	 17.0456 	 27.1528 	 15.6380 	 4.3000
  1.0000 	 1.7000 	 0.8521 	 98.4480 	 1.5960 	 6.0459 	 2.4732 	 19.9248 	 22.5094 	 13.8789 	 4.3000
  1.0000 	 1.8000 	 0.9270 	 93.1105 	 1.5085 	 10.9568 	 2.4332 	 22.3587 	 17.3505 	 11.4019 	 4.3000
  1.0000 	 1.9000 	 0.9940 	 89.0372 	 1.4290 	 16.9297 	 2.3989 	 24.4750 	 10.8150 	 7.5453 	 4.3000
  1.0000 	 1.4000 	 0.5252 	 154.6993 	 1.9658 	 -12.6220 	 2.6842 	 4.7966 	 36.0489 	 17.4186 	 4.4000
  1.0000 	 1.5000 	 0.6368 	 124.7674 	 1.8414 	 -5.0309 	 2.6160 	 11.5358 	 31.6701 	 16.5667 	 4.4000
  1.0000 	 1.6000 	 0.7345 	 111.1860 	 1.7310 	 0.2075 	 2.5588 	 15.5251 	 27.2113 	 15.3176 	 4.4000
  1.0000 	 1.7000 	 0.8207 	 102.6155 	 1.6323 	 5.0344 	 2.5104 	 18.6048 	 22.5193 	 13.5704 	 4.4000
  1.0000 	 1.8000 	 0.8974 	 96.5672 	 1.5433 	 10.0607 	 2.4692 	 21.1643 	 17.2898 	 11.1036 	 4.4000
  1.0000 	 1.9000 	 0.9659 	 92.0214 	 1.4624 	 16.1381 	 2.4337 	 23.3688 	 10.6068 	 7.2307 	 4.4000
  1.0000 	 1.5000 	 0.6013 	 134.4923 	 1.8811 	 -6.9553 	 2.6563 	 9.2930 	 31.7588 	 16.2483 	 4.5000
  1.0000 	 1.6000 	 0.7012 	 117.2883 	 1.7688 	 -1.1261 	 2.5974 	 13.8826 	 27.2617 	 15.0088 	 4.5000
  1.0000 	 1.7000 	 0.7894 	 107.1924 	 1.6683 	 3.9468 	 2.5475 	 17.2190 	 22.5203 	 13.2722 	 4.5000
  1.0000 	 1.8000 	 0.8678 	 100.2869 	 1.5778 	 9.1151 	 2.5050 	 19.9286 	 17.2184 	 10.8135 	 4.5000
  1.0000 	 1.9000 	 0.9379 	 95.1904 	 1.4956 	 15.3164 	 2.4684 	 22.2345 	 10.3786 	 6.9182 	 4.5000
