# d(e,e'p)n Central Kinematics Summary
# Beam Energy (Ei) = 10.549 GeV
# 
# Tensor Polarized Deuterium: d(e,e'p) kinematics :
# 
# Header Definitions: 
# Pr   : Central Missing Momentum [GeV/c] 
# xbj  : Bjorken x  
# kf   : e- final momentum [GeV/c] 
# th_e : e- scattering angle [deg] 
# Pf   : final proton momentum [GeV/c] 
# th_p : proton scattering angle [deg] 
# q    : 3-momentum transfer [GeV] 
# th_q : relative angle between q-vector and +z (lab)  [deg] 
# th_nq: relative angle between q-vector and recoil neutron [deg] 
# th_pq: relative angle between q-vector and knocked-out proton [deg] 
# Q2   : 4-Momentum Transfer [GeV^2]  
# 
#! Pr[f,0]/ 	  xbj[f,1]/ 	 kf[f,2]/ 	 th_e[f,3]/ 	 Pf[f,4]/ 	 th_p[f,5]/ 	 q[f,6]/ 	 th_q[f,7]/ 	 th_nq[f,8]/ 	 th_pq[f,9]/ 	 Q2[f,10]/
  0.1200 	 1.0000 	 8.4174 	 12.1836 	 2.9126 	 39.7756 	 2.9229 	 37.4278 	 83.8772 	 2.3478 	 4.0000
  0.1200 	 1.0500 	 8.5189 	 12.1105 	 2.8058 	 41.1029 	 2.8498 	 38.8407 	 67.3582 	 2.2622 	 4.0000
  0.1200 	 1.1000 	 8.6112 	 12.0452 	 2.7083 	 42.1169 	 2.7848 	 40.1880 	 49.4346 	 1.9289 	 4.0000
  0.1200 	 1.1500 	 8.6955 	 11.9865 	 2.6190 	 42.5998 	 2.7268 	 41.4728 	 25.4201 	 1.1270 	 4.0000
  0.1200 	 1.0000 	 8.4121 	 12.2028 	 2.9182 	 39.7274 	 2.9285 	 37.3841 	 83.8803 	 2.3433 	 4.0100
  0.1200 	 1.0500 	 8.5139 	 12.1293 	 2.8111 	 41.0548 	 2.8551 	 38.7970 	 67.3509 	 2.2578 	 4.0100
  0.1200 	 1.1000 	 8.6064 	 12.0637 	 2.7134 	 42.0689 	 2.7900 	 40.1443 	 49.4122 	 1.9246 	 4.0100
  0.1200 	 1.1500 	 8.6908 	 12.0048 	 2.6239 	 42.5514 	 2.7318 	 41.4292 	 25.3558 	 1.1222 	 4.0100
  0.1200 	 1.0000 	 8.4068 	 12.2219 	 2.9238 	 39.6792 	 2.9341 	 37.3404 	 83.8834 	 2.3388 	 4.0200
  0.1200 	 1.0500 	 8.5088 	 12.1482 	 2.8165 	 41.0067 	 2.8605 	 38.7533 	 67.3437 	 2.2534 	 4.0200
  0.1200 	 1.1000 	 8.6015 	 12.0822 	 2.7185 	 42.0211 	 2.7951 	 40.1007 	 49.3899 	 1.9204 	 4.0200
  0.1200 	 1.1500 	 8.6862 	 12.0230 	 2.6288 	 42.5032 	 2.7368 	 41.3858 	 25.2915 	 1.1175 	 4.0200
  0.1200 	 1.0000 	 8.4014 	 12.2411 	 2.9294 	 39.6312 	 2.9397 	 37.2968 	 83.8866 	 2.3344 	 4.0300
  0.1200 	 1.0500 	 8.5037 	 12.1670 	 2.8218 	 40.9587 	 2.8659 	 38.7097 	 67.3365 	 2.2490 	 4.0300
  0.1200 	 1.1000 	 8.5967 	 12.1007 	 2.7237 	 41.9733 	 2.8003 	 40.0572 	 49.3677 	 1.9161 	 4.0300
  0.1200 	 1.1500 	 8.6816 	 12.0412 	 2.6337 	 42.4551 	 2.7418 	 41.3424 	 25.2272 	 1.1127 	 4.0300
  0.1200 	 1.0000 	 8.3961 	 12.2602 	 2.9350 	 39.5833 	 2.9453 	 37.2534 	 83.8896 	 2.3299 	 4.0400
  0.1200 	 1.0500 	 8.4986 	 12.1857 	 2.8272 	 40.9109 	 2.8712 	 38.6663 	 67.3292 	 2.2446 	 4.0400
  0.1200 	 1.1000 	 8.5918 	 12.1192 	 2.7288 	 41.9257 	 2.8054 	 40.0138 	 49.3455 	 1.9119 	 4.0400
  0.1200 	 1.1500 	 8.6769 	 12.0594 	 2.6386 	 42.4072 	 2.7468 	 41.2992 	 25.1630 	 1.1080 	 4.0400
  0.1200 	 1.0000 	 8.3908 	 12.2793 	 2.9406 	 39.5355 	 2.9509 	 37.2100 	 83.8927 	 2.3255 	 4.0500
  0.1200 	 1.0500 	 8.4935 	 12.2045 	 2.8325 	 40.8631 	 2.8766 	 38.6229 	 67.3221 	 2.2403 	 4.0500
  0.1200 	 1.1000 	 8.5870 	 12.1377 	 2.7339 	 41.8781 	 2.8106 	 39.9705 	 49.3234 	 1.9076 	 4.0500
  0.1200 	 1.1500 	 8.6723 	 12.0776 	 2.6436 	 42.3593 	 2.7517 	 41.2560 	 25.0988 	 1.1033 	 4.0500
  0.1200 	 1.0000 	 8.3854 	 12.2985 	 2.9462 	 39.4878 	 2.9565 	 37.1667 	 83.8958 	 2.3211 	 4.0600
  0.1200 	 1.0500 	 8.4885 	 12.2233 	 2.8379 	 40.8155 	 2.8820 	 38.5796 	 67.3149 	 2.2359 	 4.0600
  0.1200 	 1.1000 	 8.5821 	 12.1562 	 2.7390 	 41.8307 	 2.8158 	 39.9273 	 49.3013 	 1.9035 	 4.0600
  0.1200 	 1.1500 	 8.6677 	 12.0958 	 2.6485 	 42.3115 	 2.7567 	 41.2129 	 25.0346 	 1.0986 	 4.0600
  0.1200 	 1.0000 	 8.3801 	 12.3176 	 2.9518 	 39.4403 	 2.9621 	 37.1235 	 83.8988 	 2.3167 	 4.0700
  0.1200 	 1.0500 	 8.4834 	 12.2421 	 2.8432 	 40.7680 	 2.8873 	 38.5364 	 67.3077 	 2.2316 	 4.0700
  0.1200 	 1.1000 	 8.5773 	 12.1746 	 2.7442 	 41.7834 	 2.8209 	 39.8841 	 49.2793 	 1.8993 	 4.0700
  0.1200 	 1.1500 	 8.6630 	 12.1140 	 2.6534 	 42.2638 	 2.7617 	 41.1699 	 24.9704 	 1.0939 	 4.0700
  0.1200 	 1.0000 	 8.3748 	 12.3367 	 2.9574 	 39.3928 	 2.9677 	 37.0805 	 83.9019 	 2.3124 	 4.0800
  0.1200 	 1.0500 	 8.4783 	 12.2609 	 2.8485 	 40.7206 	 2.8927 	 38.4933 	 67.3006 	 2.2273 	 4.0800
  0.1200 	 1.1000 	 8.5724 	 12.1931 	 2.7493 	 41.7362 	 2.8261 	 39.8411 	 49.2573 	 1.8951 	 4.0800
  0.1200 	 1.1500 	 8.6584 	 12.1322 	 2.6583 	 42.2163 	 2.7667 	 41.1270 	 24.9063 	 1.0893 	 4.0800
  0.1200 	 1.0000 	 8.3695 	 12.3558 	 2.9629 	 39.3455 	 2.9733 	 37.0375 	 83.9049 	 2.3080 	 4.0900
  0.1200 	 1.0500 	 8.4732 	 12.2796 	 2.8539 	 40.6733 	 2.8981 	 38.4503 	 67.2935 	 2.2230 	 4.0900
  0.1200 	 1.1000 	 8.5676 	 12.2116 	 2.7544 	 41.6891 	 2.8312 	 39.7982 	 49.2354 	 1.8910 	 4.0900
  0.1200 	 1.1500 	 8.6537 	 12.1504 	 2.6632 	 42.1688 	 2.7716 	 41.0842 	 24.8421 	 1.0847 	 4.0900
  0.1200 	 1.0000 	 8.3641 	 12.3749 	 2.9685 	 39.2982 	 2.9789 	 36.9946 	 83.9079 	 2.3037 	 4.1000
  0.1200 	 1.0500 	 8.4682 	 12.2984 	 2.8592 	 40.6261 	 2.9034 	 38.4074 	 67.2864 	 2.2187 	 4.1000
  0.1200 	 1.1000 	 8.5628 	 12.2300 	 2.7595 	 41.6421 	 2.8364 	 39.7553 	 49.2136 	 1.8868 	 4.1000
  0.1200 	 1.1500 	 8.6491 	 12.1686 	 2.6681 	 42.1215 	 2.7766 	 41.0414 	 24.7781 	 1.0801 	 4.1000
  0.1200 	 1.0000 	 8.3588 	 12.3940 	 2.9741 	 39.2511 	 2.9845 	 36.9518 	 83.9109 	 2.2993 	 4.1100
  0.1200 	 1.0500 	 8.4631 	 12.3171 	 2.8646 	 40.5790 	 2.9088 	 38.3646 	 67.2793 	 2.2145 	 4.1100
  0.1200 	 1.1000 	 8.5579 	 12.2485 	 2.7646 	 41.5953 	 2.8416 	 39.7126 	 49.1918 	 1.8827 	 4.1100
  0.1200 	 1.1500 	 8.6445 	 12.1867 	 2.6730 	 42.0743 	 2.7816 	 40.9988 	 24.7140 	 1.0755 	 4.1100
  0.1200 	 1.0000 	 8.3535 	 12.4131 	 2.9797 	 39.2041 	 2.9900 	 36.9090 	 83.9139 	 2.2950 	 4.1200
  0.1200 	 1.0500 	 8.4580 	 12.3359 	 2.8699 	 40.5321 	 2.9141 	 38.3218 	 67.2722 	 2.2102 	 4.1200
  0.1200 	 1.1000 	 8.5531 	 12.2669 	 2.7697 	 41.5485 	 2.8467 	 39.6699 	 49.1700 	 1.8786 	 4.1200
  0.1200 	 1.1500 	 8.6398 	 12.2049 	 2.6780 	 42.0271 	 2.7866 	 40.9562 	 24.6499 	 1.0709 	 4.1200
  0.1200 	 1.0000 	 8.3481 	 12.4322 	 2.9853 	 39.1572 	 2.9956 	 36.8664 	 83.9168 	 2.2908 	 4.1300
  0.1200 	 1.0500 	 8.4529 	 12.3546 	 2.8752 	 40.4852 	 2.9195 	 38.2792 	 67.2652 	 2.2060 	 4.1300
  0.1200 	 1.1000 	 8.5482 	 12.2853 	 2.7749 	 41.5018 	 2.8519 	 39.6273 	 49.1483 	 1.8745 	 4.1300
  0.1200 	 1.1500 	 8.6352 	 12.2230 	 2.6829 	 41.9801 	 2.7915 	 40.9138 	 24.5859 	 1.0663 	 4.1300
  0.1200 	 1.0000 	 8.3428 	 12.4513 	 2.9909 	 39.1104 	 3.0012 	 36.8239 	 83.9198 	 2.2865 	 4.1400
  0.1200 	 1.0500 	 8.4479 	 12.3734 	 2.8806 	 40.4385 	 2.9248 	 38.2367 	 67.2581 	 2.2018 	 4.1400
  0.1200 	 1.1000 	 8.5434 	 12.3037 	 2.7800 	 41.4553 	 2.8570 	 39.5848 	 49.1267 	 1.8705 	 4.1400
  0.1200 	 1.1500 	 8.6306 	 12.2412 	 2.6878 	 41.9332 	 2.7965 	 40.8714 	 24.5219 	 1.0618 	 4.1400
  0.1200 	 1.0000 	 8.3375 	 12.4704 	 2.9965 	 39.0637 	 3.0068 	 36.7815 	 83.9227 	 2.2822 	 4.1500
  0.1200 	 1.0500 	 8.4428 	 12.3921 	 2.8859 	 40.3918 	 2.9302 	 38.1942 	 67.2511 	 2.1976 	 4.1500
  0.1200 	 1.1000 	 8.5385 	 12.3222 	 2.7851 	 41.4088 	 2.8622 	 39.5424 	 49.1051 	 1.8664 	 4.1500
  0.1200 	 1.1500 	 8.6259 	 12.2593 	 2.6927 	 41.8863 	 2.8015 	 40.8291 	 24.4579 	 1.0572 	 4.1500
  0.1200 	 1.0000 	 8.3322 	 12.4895 	 3.0020 	 39.0171 	 3.0124 	 36.7391 	 83.9257 	 2.2780 	 4.1600
  0.1200 	 1.0500 	 8.4377 	 12.4108 	 2.8913 	 40.3453 	 2.9356 	 38.1518 	 67.2441 	 2.1935 	 4.1600
  0.1200 	 1.1000 	 8.5337 	 12.3406 	 2.7902 	 41.3625 	 2.8673 	 39.5001 	 49.0836 	 1.8624 	 4.1600
  0.1200 	 1.1500 	 8.6213 	 12.2775 	 2.6976 	 41.8396 	 2.8064 	 40.7869 	 24.3939 	 1.0527 	 4.1600
  0.1200 	 1.0000 	 8.3268 	 12.5086 	 3.0076 	 38.9707 	 3.0180 	 36.6969 	 83.9286 	 2.2738 	 4.1700
  0.1200 	 1.0500 	 8.4326 	 12.4295 	 2.8966 	 40.2989 	 2.9409 	 38.1096 	 67.2371 	 2.1893 	 4.1700
  0.1200 	 1.1000 	 8.5288 	 12.3590 	 2.7953 	 41.3163 	 2.8725 	 39.4579 	 49.0621 	 1.8584 	 4.1700
  0.1200 	 1.1500 	 8.6167 	 12.2956 	 2.7025 	 41.7930 	 2.8114 	 40.7448 	 24.3299 	 1.0482 	 4.1700
  0.1200 	 1.0000 	 8.3215 	 12.5277 	 3.0132 	 38.9243 	 3.0235 	 36.6547 	 83.9315 	 2.2696 	 4.1800
  0.1200 	 1.0500 	 8.4276 	 12.4483 	 2.9019 	 40.2526 	 2.9463 	 38.0674 	 67.2302 	 2.1852 	 4.1800
  0.1200 	 1.1000 	 8.5240 	 12.3774 	 2.8004 	 41.2701 	 2.8776 	 39.4157 	 49.0406 	 1.8544 	 4.1800
  0.1200 	 1.1500 	 8.6120 	 12.3137 	 2.7074 	 41.7465 	 2.8163 	 40.7028 	 24.2660 	 1.0437 	 4.1800
  0.1200 	 1.0000 	 8.3162 	 12.5467 	 3.0188 	 38.8781 	 3.0291 	 36.6127 	 83.9344 	 2.2654 	 4.1900
  0.1200 	 1.0500 	 8.4225 	 12.4670 	 2.9073 	 40.2063 	 2.9516 	 38.0253 	 67.2232 	 2.1810 	 4.1900
  0.1200 	 1.1000 	 8.5192 	 12.3958 	 2.8055 	 41.2241 	 2.8828 	 39.3737 	 49.0192 	 1.8504 	 4.1900
  0.1200 	 1.1500 	 8.6074 	 12.3318 	 2.7123 	 41.7001 	 2.8213 	 40.6608 	 24.2021 	 1.0393 	 4.1900
  0.1200 	 1.0000 	 8.3108 	 12.5658 	 3.0244 	 38.8319 	 3.0347 	 36.5707 	 83.9373 	 2.2612 	 4.2000
  0.1200 	 1.0500 	 8.4174 	 12.4857 	 2.9126 	 40.1602 	 2.9570 	 37.9833 	 67.2163 	 2.1769 	 4.2000
  0.1200 	 1.1000 	 8.5143 	 12.4141 	 2.8106 	 41.1782 	 2.8879 	 39.3317 	 48.9979 	 1.8465 	 4.2000
  0.1200 	 1.1500 	 8.6028 	 12.3499 	 2.7172 	 41.6538 	 2.8263 	 40.6190 	 24.1382 	 1.0348 	 4.2000
  0.1200 	 1.0000 	 8.3055 	 12.5849 	 3.0300 	 38.7859 	 3.0403 	 36.5288 	 83.9401 	 2.2571 	 4.2100
  0.1200 	 1.0500 	 8.4123 	 12.5044 	 2.9179 	 40.1142 	 2.9623 	 37.9414 	 67.2094 	 2.1729 	 4.2100
  0.1200 	 1.1000 	 8.5095 	 12.4325 	 2.8157 	 41.1324 	 2.8930 	 39.2898 	 48.9766 	 1.8425 	 4.2100
  0.1200 	 1.1500 	 8.5981 	 12.3680 	 2.7221 	 41.6076 	 2.8312 	 40.5772 	 24.0743 	 1.0304 	 4.2100
  0.1200 	 1.0000 	 8.3002 	 12.6039 	 3.0355 	 38.7399 	 3.0458 	 36.4870 	 83.9430 	 2.2529 	 4.2200
  0.1200 	 1.0500 	 8.4073 	 12.5231 	 2.9233 	 40.0683 	 2.9677 	 37.8995 	 67.2025 	 2.1688 	 4.2200
  0.1200 	 1.1000 	 8.5046 	 12.4509 	 2.8208 	 41.0866 	 2.8982 	 39.2480 	 48.9554 	 1.8386 	 4.2200
  0.1200 	 1.1500 	 8.5935 	 12.3861 	 2.7270 	 41.5615 	 2.8362 	 40.5355 	 24.0104 	 1.0260 	 4.2200
  0.1200 	 1.0000 	 8.2949 	 12.6230 	 3.0411 	 38.6941 	 3.0514 	 36.4453 	 83.9458 	 2.2488 	 4.2300
  0.1200 	 1.0500 	 8.4022 	 12.5418 	 2.9286 	 40.0225 	 2.9730 	 37.8578 	 67.1956 	 2.1647 	 4.2300
  0.1200 	 1.1000 	 8.4998 	 12.4693 	 2.8259 	 41.0410 	 2.9033 	 39.2063 	 48.9342 	 1.8347 	 4.2300
  0.1200 	 1.1500 	 8.5889 	 12.4042 	 2.7319 	 41.5155 	 2.8411 	 40.4939 	 23.9465 	 1.0216 	 4.2300
  0.1200 	 1.0000 	 8.2895 	 12.6420 	 3.0467 	 38.6484 	 3.0570 	 36.4037 	 83.9487 	 2.2447 	 4.2400
  0.1200 	 1.0500 	 8.3971 	 12.5604 	 2.9339 	 39.9768 	 2.9784 	 37.8161 	 67.1887 	 2.1607 	 4.2400
  0.1200 	 1.1000 	 8.4949 	 12.4876 	 2.8310 	 40.9955 	 2.9085 	 39.1647 	 48.9131 	 1.8308 	 4.2400
  0.1200 	 1.1500 	 8.5842 	 12.4222 	 2.7368 	 41.4696 	 2.8461 	 40.4524 	 23.8827 	 1.0172 	 4.2400
  0.1200 	 1.0000 	 8.2842 	 12.6611 	 3.0523 	 38.6028 	 3.0626 	 36.3621 	 83.9515 	 2.2406 	 4.2500
  0.1200 	 1.0500 	 8.3920 	 12.5791 	 2.9392 	 39.9312 	 2.9837 	 37.7746 	 67.1819 	 2.1567 	 4.2500
  0.1200 	 1.1000 	 8.4901 	 12.5060 	 2.8362 	 40.9501 	 2.9136 	 39.1232 	 48.8920 	 1.8269 	 4.2500
  0.1200 	 1.1500 	 8.5796 	 12.4403 	 2.7417 	 41.4237 	 2.8511 	 40.4109 	 23.8188 	 1.0128 	 4.2500
  0.1200 	 1.0000 	 8.2789 	 12.6801 	 3.0578 	 38.5573 	 3.0681 	 36.3207 	 83.9543 	 2.2365 	 4.2600
  0.1200 	 1.0500 	 8.3870 	 12.5978 	 2.9446 	 39.8857 	 2.9890 	 37.7331 	 67.1750 	 2.1526 	 4.2600
  0.1200 	 1.1000 	 8.4852 	 12.5243 	 2.8413 	 40.9048 	 2.9187 	 39.0817 	 48.8710 	 1.8230 	 4.2600
  0.1200 	 1.1500 	 8.5750 	 12.4584 	 2.7466 	 41.3780 	 2.8560 	 40.3696 	 23.7550 	 1.0084 	 4.2600
  0.1200 	 1.0000 	 8.2735 	 12.6991 	 3.0634 	 38.5118 	 3.0737 	 36.2794 	 83.9571 	 2.2325 	 4.2700
  0.1200 	 1.0500 	 8.3819 	 12.6165 	 2.9499 	 39.8403 	 2.9944 	 37.6917 	 67.1682 	 2.1486 	 4.2700
  0.1200 	 1.1000 	 8.4804 	 12.5427 	 2.8464 	 40.8596 	 2.9239 	 39.0404 	 48.8500 	 1.8192 	 4.2700
  0.1200 	 1.1500 	 8.5703 	 12.4764 	 2.7515 	 41.3324 	 2.8610 	 40.3283 	 23.6912 	 1.0041 	 4.2700
  0.1200 	 1.0000 	 8.2682 	 12.7182 	 3.0690 	 38.4665 	 3.0793 	 36.2381 	 83.9599 	 2.2284 	 4.2800
  0.1200 	 1.0500 	 8.3768 	 12.6351 	 2.9552 	 39.7950 	 2.9997 	 37.6504 	 67.1614 	 2.1447 	 4.2800
  0.1200 	 1.1000 	 8.4756 	 12.5610 	 2.8515 	 40.8144 	 2.9290 	 38.9991 	 48.8291 	 1.8153 	 4.2800
  0.1200 	 1.1500 	 8.5657 	 12.4945 	 2.7564 	 41.2869 	 2.8659 	 40.2871 	 23.6274 	 0.9998 	 4.2800
  0.1200 	 1.0000 	 8.2629 	 12.7372 	 3.0746 	 38.4213 	 3.0849 	 36.1969 	 83.9626 	 2.2244 	 4.2900
  0.1200 	 1.0500 	 8.3717 	 12.6538 	 2.9605 	 39.7499 	 3.0051 	 37.6092 	 67.1546 	 2.1407 	 4.2900
  0.1200 	 1.1000 	 8.4707 	 12.5794 	 2.8566 	 40.7694 	 2.9342 	 38.9579 	 48.8082 	 1.8115 	 4.2900
  0.1200 	 1.1500 	 8.5611 	 12.5125 	 2.7613 	 41.2415 	 2.8709 	 40.2460 	 23.5636 	 0.9955 	 4.2900
  0.1200 	 1.0000 	 8.2576 	 12.7562 	 3.0801 	 38.3762 	 3.0904 	 36.1558 	 83.9654 	 2.2204 	 4.3000
  0.1200 	 1.0500 	 8.3667 	 12.6724 	 2.9659 	 39.7048 	 3.0104 	 37.5680 	 67.1479 	 2.1367 	 4.3000
  0.1200 	 1.1000 	 8.4659 	 12.5977 	 2.8617 	 40.7245 	 2.9393 	 38.9168 	 48.7874 	 1.8077 	 4.3000
  0.1200 	 1.1500 	 8.5564 	 12.5306 	 2.7662 	 41.1962 	 2.8758 	 40.2050 	 23.4998 	 0.9912 	 4.3000
  0.1200 	 1.0000 	 8.2522 	 12.7753 	 3.0857 	 38.3312 	 3.0960 	 36.1148 	 83.9682 	 2.2164 	 4.3100
  0.1200 	 1.0500 	 8.3616 	 12.6911 	 2.9712 	 39.6598 	 3.0157 	 37.5270 	 67.1411 	 2.1328 	 4.3100
  0.1200 	 1.1000 	 8.4610 	 12.6160 	 2.8668 	 40.6797 	 2.9444 	 38.8758 	 48.7666 	 1.8039 	 4.3100
  0.1200 	 1.1500 	 8.5518 	 12.5486 	 2.7711 	 41.1509 	 2.8808 	 40.1641 	 23.4360 	 0.9869 	 4.3100
  0.1200 	 1.0000 	 8.2469 	 12.7943 	 3.0913 	 38.2863 	 3.1016 	 36.0739 	 83.9709 	 2.2124 	 4.3200
  0.1200 	 1.0500 	 8.3565 	 12.7097 	 2.9765 	 39.6149 	 3.0211 	 37.4860 	 67.1344 	 2.1289 	 4.3200
  0.1200 	 1.1000 	 8.4562 	 12.6343 	 2.8718 	 40.6350 	 2.9496 	 38.8348 	 48.7458 	 1.8002 	 4.3200
  0.1200 	 1.1500 	 8.5472 	 12.5666 	 2.7760 	 41.1058 	 2.8857 	 40.1232 	 23.3722 	 0.9826 	 4.3200
  0.1200 	 1.0000 	 8.2416 	 12.8133 	 3.0968 	 38.2415 	 3.1071 	 36.0330 	 83.9736 	 2.2084 	 4.3300
  0.1200 	 1.0500 	 8.3514 	 12.7284 	 2.9818 	 39.5701 	 3.0264 	 37.4451 	 67.1277 	 2.1250 	 4.3300
  0.1200 	 1.1000 	 8.4513 	 12.6526 	 2.8769 	 40.5903 	 2.9547 	 38.7939 	 48.7252 	 1.7964 	 4.3300
  0.1200 	 1.1500 	 8.5425 	 12.5846 	 2.7809 	 41.0608 	 2.8907 	 40.0824 	 23.3085 	 0.9783 	 4.3300
  0.1200 	 1.0000 	 8.2362 	 12.8323 	 3.1024 	 38.1968 	 3.1127 	 35.9923 	 83.9763 	 2.2045 	 4.3400
  0.1200 	 1.0500 	 8.3464 	 12.7470 	 2.9872 	 39.5254 	 3.0318 	 37.4043 	 67.1210 	 2.1211 	 4.3400
  0.1200 	 1.1000 	 8.4465 	 12.6709 	 2.8820 	 40.5458 	 2.9598 	 38.7532 	 48.7045 	 1.7927 	 4.3400
  0.1200 	 1.1500 	 8.5379 	 12.6027 	 2.7857 	 41.0158 	 2.8956 	 40.0417 	 23.2447 	 0.9741 	 4.3400
  0.1200 	 1.0000 	 8.2309 	 12.8513 	 3.1080 	 38.1522 	 3.1183 	 35.9516 	 83.9790 	 2.2006 	 4.3500
  0.1200 	 1.0500 	 8.3413 	 12.7657 	 2.9925 	 39.4808 	 3.0371 	 37.3636 	 67.1143 	 2.1172 	 4.3500
  0.1200 	 1.1000 	 8.4416 	 12.6893 	 2.8871 	 40.5014 	 2.9650 	 38.7125 	 48.6839 	 1.7889 	 4.3500
  0.1200 	 1.1500 	 8.5333 	 12.6207 	 2.7906 	 40.9710 	 2.9005 	 40.0011 	 23.1809 	 0.9699 	 4.3500
  0.1200 	 1.0000 	 8.2256 	 12.8704 	 3.1135 	 38.1077 	 3.1238 	 35.9111 	 83.9817 	 2.1966 	 4.3600
  0.1200 	 1.0500 	 8.3362 	 12.7843 	 2.9978 	 39.4363 	 3.0424 	 37.3230 	 67.1076 	 2.1134 	 4.3600
  0.1200 	 1.1000 	 8.4368 	 12.7076 	 2.8922 	 40.4571 	 2.9701 	 38.6718 	 48.6634 	 1.7852 	 4.3600
  0.1200 	 1.1500 	 8.5286 	 12.6387 	 2.7955 	 40.9262 	 2.9055 	 39.9606 	 23.1172 	 0.9657 	 4.3600
  0.1200 	 1.0000 	 8.2203 	 12.8894 	 3.1191 	 38.0633 	 3.1294 	 35.8706 	 83.9844 	 2.1927 	 4.3700
  0.1200 	 1.0500 	 8.3311 	 12.8029 	 3.0031 	 39.3919 	 3.0478 	 37.2824 	 67.1010 	 2.1095 	 4.3700
  0.1200 	 1.1000 	 8.4320 	 12.7258 	 2.8973 	 40.4128 	 2.9752 	 38.6313 	 48.6429 	 1.7815 	 4.3700
  0.1200 	 1.1500 	 8.5240 	 12.6567 	 2.8004 	 40.8816 	 2.9104 	 39.9201 	 23.0534 	 0.9615 	 4.3700
  0.1200 	 1.0000 	 8.2149 	 12.9084 	 3.1247 	 38.0190 	 3.1350 	 35.8301 	 83.9871 	 2.1888 	 4.3800
  0.1200 	 1.0500 	 8.3261 	 12.8216 	 3.0084 	 39.3476 	 3.0531 	 37.2419 	 67.0943 	 2.1057 	 4.3800
  0.1200 	 1.1000 	 8.4271 	 12.7441 	 2.9024 	 40.3687 	 2.9803 	 38.5909 	 48.6225 	 1.7778 	 4.3800
  0.1200 	 1.1500 	 8.5194 	 12.6747 	 2.8053 	 40.8370 	 2.9154 	 39.8797 	 22.9897 	 0.9573 	 4.3800
  0.1200 	 1.0000 	 8.2096 	 12.9274 	 3.1302 	 37.9748 	 3.1405 	 35.7898 	 83.9897 	 2.1849 	 4.3900
  0.1200 	 1.0500 	 8.3210 	 12.8402 	 3.0137 	 39.3034 	 3.0584 	 37.2016 	 67.0877 	 2.1019 	 4.3900
  0.1200 	 1.1000 	 8.4223 	 12.7624 	 2.9075 	 40.3246 	 2.9855 	 38.5505 	 48.6021 	 1.7742 	 4.3900
  0.1200 	 1.1500 	 8.5147 	 12.6926 	 2.8102 	 40.7925 	 2.9203 	 39.8394 	 22.9259 	 0.9531 	 4.3900
  0.1200 	 1.0000 	 8.2043 	 12.9464 	 3.1358 	 37.9306 	 3.1461 	 35.7496 	 83.9924 	 2.1811 	 4.4000
  0.1200 	 1.0500 	 8.3159 	 12.8588 	 3.0191 	 39.2593 	 3.0638 	 37.1613 	 67.0811 	 2.0981 	 4.4000
  0.1200 	 1.1000 	 8.4174 	 12.7807 	 2.9126 	 40.2807 	 2.9906 	 38.5102 	 48.5817 	 1.7705 	 4.4000
  0.1200 	 1.1500 	 8.5101 	 12.7106 	 2.8151 	 40.7482 	 2.9253 	 39.7992 	 22.8622 	 0.9490 	 4.4000
  0.1200 	 1.0000 	 8.1989 	 12.9654 	 3.1413 	 37.8866 	 3.1516 	 35.7094 	 83.9950 	 2.1772 	 4.4100
  0.1200 	 1.0500 	 8.3108 	 12.8774 	 3.0244 	 39.2153 	 3.0691 	 37.1210 	 67.0745 	 2.0943 	 4.4100
  0.1200 	 1.1000 	 8.4126 	 12.7990 	 2.9177 	 40.2368 	 2.9957 	 38.4700 	 48.5614 	 1.7669 	 4.4100
  0.1200 	 1.1500 	 8.5055 	 12.7286 	 2.8200 	 40.7039 	 2.9302 	 39.7591 	 22.7985 	 0.9448 	 4.4100
  0.1200 	 1.0000 	 8.1936 	 12.9844 	 3.1469 	 37.8427 	 3.1572 	 35.6693 	 83.9976 	 2.1734 	 4.4200
  0.1200 	 1.0500 	 8.3058 	 12.8960 	 3.0297 	 39.1714 	 3.0744 	 37.0809 	 67.0679 	 2.0905 	 4.4200
  0.1200 	 1.1000 	 8.4077 	 12.8172 	 2.9228 	 40.1931 	 3.0008 	 38.4298 	 48.5412 	 1.7632 	 4.4200
  0.1200 	 1.1500 	 8.5008 	 12.7466 	 2.8248 	 40.6597 	 2.9351 	 39.7190 	 22.7347 	 0.9407 	 4.4200
  0.1200 	 1.0000 	 8.1883 	 13.0033 	 3.1525 	 37.7989 	 3.1628 	 35.6293 	 84.0003 	 2.1696 	 4.4300
  0.1200 	 1.0500 	 8.3007 	 12.9146 	 3.0350 	 39.1275 	 3.0798 	 37.0408 	 67.0614 	 2.0867 	 4.4300
  0.1200 	 1.1000 	 8.4029 	 12.8355 	 2.9279 	 40.1494 	 3.0060 	 38.3898 	 48.5210 	 1.7596 	 4.4300
  0.1200 	 1.1500 	 8.4962 	 12.7645 	 2.8297 	 40.6156 	 2.9401 	 39.6790 	 22.6710 	 0.9366 	 4.4300
  0.1200 	 1.0000 	 8.1829 	 13.0223 	 3.1580 	 37.7551 	 3.1683 	 35.5894 	 84.0029 	 2.1657 	 4.4400
  0.1200 	 1.0500 	 8.2956 	 12.9332 	 3.0403 	 39.0838 	 3.0851 	 37.0008 	 67.0548 	 2.0830 	 4.4400
  0.1200 	 1.1000 	 8.3980 	 12.8538 	 2.9329 	 40.1058 	 3.0111 	 38.3498 	 48.5008 	 1.7560 	 4.4400
  0.1200 	 1.1500 	 8.4916 	 12.7825 	 2.8346 	 40.5715 	 2.9450 	 39.6391 	 22.6072 	 0.9325 	 4.4400
  0.1200 	 1.0000 	 8.1776 	 13.0413 	 3.1636 	 37.7115 	 3.1739 	 35.5496 	 84.0055 	 2.1619 	 4.4500
  0.1200 	 1.0500 	 8.2905 	 12.9518 	 3.0456 	 39.0402 	 3.0904 	 36.9609 	 67.0483 	 2.0792 	 4.4500
  0.1200 	 1.1000 	 8.3932 	 12.8720 	 2.9380 	 40.0623 	 3.0162 	 38.3099 	 48.4807 	 1.7524 	 4.4500
  0.1200 	 1.1500 	 8.4869 	 12.8005 	 2.8395 	 40.5276 	 2.9499 	 39.5993 	 22.5435 	 0.9284 	 4.4500
  0.1200 	 1.0000 	 8.1723 	 13.0603 	 3.1691 	 37.6680 	 3.1794 	 35.5098 	 84.0080 	 2.1582 	 4.4600
  0.1200 	 1.0500 	 8.2855 	 12.9704 	 3.0509 	 38.9966 	 3.0957 	 36.9211 	 67.0418 	 2.0755 	 4.4600
  0.1200 	 1.1000 	 8.3884 	 12.8903 	 2.9431 	 40.0189 	 3.0213 	 38.2701 	 48.4606 	 1.7489 	 4.4600
  0.1200 	 1.1500 	 8.4823 	 12.8184 	 2.8444 	 40.4838 	 2.9549 	 39.5595 	 22.4797 	 0.9243 	 4.4600
  0.1200 	 1.0000 	 8.1670 	 13.0793 	 3.1747 	 37.6245 	 3.1850 	 35.4701 	 84.0106 	 2.1544 	 4.4700
  0.1200 	 1.0500 	 8.2804 	 12.9890 	 3.0562 	 38.9532 	 3.1011 	 36.8814 	 67.0353 	 2.0718 	 4.4700
  0.1200 	 1.1000 	 8.3835 	 12.9085 	 2.9482 	 39.9757 	 3.0264 	 38.2303 	 48.4406 	 1.7453 	 4.4700
  0.1200 	 1.1500 	 8.4777 	 12.8363 	 2.8492 	 40.4400 	 2.9598 	 39.5198 	 22.4160 	 0.9202 	 4.4700
  0.1200 	 1.0000 	 8.1616 	 13.0983 	 3.1803 	 37.5812 	 3.1905 	 35.4305 	 84.0132 	 2.1506 	 4.4800
  0.1200 	 1.0500 	 8.2753 	 13.0076 	 3.0615 	 38.9098 	 3.1064 	 36.8417 	 67.0288 	 2.0681 	 4.4800
  0.1200 	 1.1000 	 8.3787 	 12.9268 	 2.9533 	 39.9324 	 3.0316 	 38.1907 	 48.4207 	 1.7418 	 4.4800
  0.1200 	 1.1500 	 8.4730 	 12.8543 	 2.8541 	 40.3964 	 2.9647 	 39.4802 	 22.3522 	 0.9162 	 4.4800
  0.1200 	 1.0000 	 8.1563 	 13.1172 	 3.1858 	 37.5379 	 3.1961 	 35.3910 	 84.0157 	 2.1469 	 4.4900
  0.1200 	 1.0500 	 8.2702 	 13.0262 	 3.0669 	 38.8666 	 3.1117 	 36.8021 	 67.0224 	 2.0644 	 4.4900
  0.1200 	 1.1000 	 8.3738 	 12.9450 	 2.9584 	 39.8893 	 3.0367 	 38.1511 	 48.4007 	 1.7382 	 4.4900
  0.1200 	 1.1500 	 8.4684 	 12.8722 	 2.8590 	 40.3528 	 2.9697 	 39.4407 	 22.2885 	 0.9121 	 4.4900
  0.1200 	 1.0000 	 8.1510 	 13.1362 	 3.1914 	 37.4947 	 3.2016 	 35.3516 	 84.0183 	 2.1432 	 4.5000
  0.1200 	 1.0500 	 8.2652 	 13.0448 	 3.0722 	 38.8234 	 3.1170 	 36.7626 	 67.0159 	 2.0608 	 4.5000
  0.1200 	 1.1000 	 8.3690 	 12.9632 	 2.9634 	 39.8463 	 3.0418 	 38.1116 	 48.3809 	 1.7347 	 4.5000
  0.1200 	 1.1500 	 8.4638 	 12.8901 	 2.8639 	 40.3093 	 2.9746 	 39.4012 	 22.2247 	 0.9081 	 4.5000
  0.1200 	 1.0000 	 8.1456 	 13.1552 	 3.1969 	 37.4517 	 3.2072 	 35.3122 	 84.0208 	 2.1395 	 4.5100
  0.1200 	 1.0500 	 8.2601 	 13.0633 	 3.0775 	 38.7803 	 3.1224 	 36.7232 	 67.0095 	 2.0571 	 4.5100
  0.1200 	 1.1000 	 8.3641 	 12.9815 	 2.9685 	 39.8034 	 3.0469 	 38.0722 	 48.3610 	 1.7312 	 4.5100
  0.1200 	 1.1500 	 8.4591 	 12.9081 	 2.8687 	 40.2659 	 2.9795 	 39.3619 	 22.1609 	 0.9041 	 4.5100
  0.1200 	 1.0000 	 8.1403 	 13.1742 	 3.2025 	 37.4087 	 3.2127 	 35.2729 	 84.0233 	 2.1358 	 4.5200
  0.1200 	 1.0500 	 8.2550 	 13.0819 	 3.0828 	 38.7373 	 3.1277 	 36.6838 	 67.0031 	 2.0535 	 4.5200
  0.1200 	 1.1000 	 8.3593 	 12.9997 	 2.9736 	 39.7605 	 3.0520 	 38.0328 	 48.3412 	 1.7277 	 4.5200
  0.1200 	 1.1500 	 8.4545 	 12.9260 	 2.8736 	 40.2226 	 2.9845 	 39.3226 	 22.0971 	 0.9001 	 4.5200
  0.1200 	 1.0000 	 8.1350 	 13.1931 	 3.2080 	 37.3658 	 3.2183 	 35.2337 	 84.0258 	 2.1321 	 4.5300
  0.1200 	 1.0500 	 8.2499 	 13.1005 	 3.0881 	 38.6944 	 3.1330 	 36.6446 	 66.9967 	 2.0499 	 4.5300
  0.1200 	 1.1000 	 8.3544 	 13.0179 	 2.9787 	 39.7178 	 3.0571 	 37.9935 	 48.3215 	 1.7242 	 4.5300
  0.1200 	 1.1500 	 8.4499 	 12.9439 	 2.8785 	 40.1794 	 2.9894 	 39.2833 	 22.0333 	 0.8961 	 4.5300
  0.1200 	 1.0000 	 8.1297 	 13.2121 	 3.2136 	 37.3230 	 3.2239 	 35.1946 	 84.0283 	 2.1284 	 4.5400
  0.1200 	 1.0500 	 8.2449 	 13.1190 	 3.0934 	 38.6516 	 3.1383 	 36.6054 	 66.9903 	 2.0462 	 4.5400
  0.1200 	 1.1000 	 8.3496 	 13.0361 	 2.9838 	 39.6751 	 3.0622 	 37.9543 	 48.3018 	 1.7208 	 4.5400
  0.1200 	 1.1500 	 8.4452 	 12.9618 	 2.8834 	 40.1363 	 2.9943 	 39.2442 	 21.9695 	 0.8921 	 4.5400
  0.1200 	 1.0000 	 8.1243 	 13.2311 	 3.2191 	 37.2803 	 3.2294 	 35.1556 	 84.0308 	 2.1247 	 4.5500
  0.1200 	 1.0500 	 8.2398 	 13.1376 	 3.0987 	 38.6089 	 3.1436 	 36.5662 	 66.9839 	 2.0426 	 4.5500
  0.1200 	 1.1000 	 8.3448 	 13.0544 	 2.9888 	 39.6325 	 3.0674 	 37.9152 	 48.2821 	 1.7173 	 4.5500
  0.1200 	 1.1500 	 8.4406 	 12.9797 	 2.8882 	 40.0933 	 2.9992 	 39.2051 	 21.9057 	 0.8882 	 4.5500
  0.1200 	 1.0000 	 8.1190 	 13.2500 	 3.2247 	 37.2377 	 3.2349 	 35.1166 	 84.0333 	 2.1211 	 4.5600
  0.1200 	 1.0500 	 8.2347 	 13.1562 	 3.1040 	 38.5663 	 3.1490 	 36.5272 	 66.9775 	 2.0391 	 4.5600
  0.1200 	 1.1000 	 8.3399 	 13.0726 	 2.9939 	 39.5900 	 3.0725 	 37.8761 	 48.2625 	 1.7139 	 4.5600
  0.1200 	 1.1500 	 8.4360 	 12.9976 	 2.8931 	 40.0503 	 3.0042 	 39.1661 	 21.8419 	 0.8842 	 4.5600
  0.1200 	 1.0000 	 8.1137 	 13.2690 	 3.2302 	 37.1952 	 3.2405 	 35.0777 	 84.0358 	 2.1174 	 4.5700
  0.1200 	 1.0500 	 8.2296 	 13.1747 	 3.1093 	 38.5237 	 3.1543 	 36.4882 	 66.9712 	 2.0355 	 4.5700
  0.1200 	 1.1000 	 8.3351 	 13.0908 	 2.9990 	 39.5476 	 3.0776 	 37.8371 	 48.2430 	 1.7105 	 4.5700
  0.1200 	 1.1500 	 8.4313 	 13.0155 	 2.8980 	 40.0074 	 3.0091 	 39.1272 	 21.7781 	 0.8803 	 4.5700
  0.1200 	 1.0000 	 8.1083 	 13.2879 	 3.2358 	 37.1527 	 3.2460 	 35.0389 	 84.0382 	 2.1138 	 4.5800
  0.1200 	 1.0500 	 8.2246 	 13.1933 	 3.1146 	 38.4813 	 3.1596 	 36.4493 	 66.9649 	 2.0319 	 4.5800
  0.1200 	 1.1000 	 8.3302 	 13.1090 	 3.0041 	 39.5053 	 3.0827 	 37.7982 	 48.2235 	 1.7071 	 4.5800
  0.1200 	 1.1500 	 8.4267 	 13.0334 	 2.9029 	 39.9646 	 3.0140 	 39.0883 	 21.7142 	 0.8763 	 4.5800
  0.1200 	 1.0000 	 8.1030 	 13.3069 	 3.2413 	 37.1104 	 3.2516 	 35.0002 	 84.0407 	 2.1102 	 4.5900
  0.1200 	 1.0500 	 8.2195 	 13.2118 	 3.1199 	 38.4389 	 3.1649 	 36.4105 	 66.9585 	 2.0284 	 4.5900
  0.1200 	 1.1000 	 8.3254 	 13.1272 	 3.0092 	 39.4631 	 3.0878 	 37.7594 	 48.2040 	 1.7037 	 4.5900
  0.1200 	 1.1500 	 8.4221 	 13.0513 	 2.9077 	 39.9219 	 3.0189 	 39.0495 	 21.6503 	 0.8724 	 4.5900
  0.1200 	 1.0000 	 8.0977 	 13.3258 	 3.2469 	 37.0681 	 3.2571 	 34.9615 	 84.0431 	 2.1066 	 4.6000
  0.1200 	 1.0500 	 8.2144 	 13.2304 	 3.1252 	 38.3966 	 3.1702 	 36.3718 	 66.9523 	 2.0248 	 4.6000
  0.1200 	 1.1000 	 8.3205 	 13.1454 	 3.0142 	 39.4209 	 3.0929 	 37.7207 	 48.1846 	 1.7003 	 4.6000
  0.1200 	 1.1500 	 8.4174 	 13.0692 	 2.9126 	 39.8793 	 3.0238 	 39.0108 	 21.5865 	 0.8685 	 4.6000
  0.1200 	 1.0000 	 8.0924 	 13.3448 	 3.2524 	 37.0260 	 3.2627 	 34.9229 	 84.0456 	 2.1030 	 4.6100
  0.1200 	 1.0500 	 8.2093 	 13.2489 	 3.1305 	 38.3544 	 3.1755 	 36.3331 	 66.9460 	 2.0213 	 4.6100
  0.1200 	 1.1000 	 8.3157 	 13.1636 	 3.0193 	 39.3789 	 3.0980 	 37.6820 	 48.1652 	 1.6969 	 4.6100
  0.1200 	 1.1500 	 8.4128 	 13.0871 	 2.9175 	 39.8368 	 3.0288 	 38.9722 	 21.5226 	 0.8646 	 4.6100
  0.1200 	 1.0000 	 8.0870 	 13.3638 	 3.2580 	 36.9839 	 3.2682 	 34.8844 	 84.0480 	 2.0995 	 4.6200
  0.1200 	 1.0500 	 8.2043 	 13.2675 	 3.1358 	 38.3123 	 3.1808 	 36.2945 	 66.9397 	 2.0178 	 4.6200
  0.1200 	 1.1000 	 8.3108 	 13.1818 	 3.0244 	 39.3369 	 3.1031 	 37.6434 	 48.1458 	 1.6936 	 4.6200
  0.1200 	 1.1500 	 8.4082 	 13.1049 	 2.9223 	 39.7943 	 3.0337 	 38.9336 	 21.4587 	 0.8607 	 4.6200
  0.1200 	 1.0000 	 8.0817 	 13.3827 	 3.2635 	 36.9419 	 3.2738 	 34.8460 	 84.0504 	 2.0959 	 4.6300
  0.1200 	 1.0500 	 8.1992 	 13.2860 	 3.1411 	 38.2703 	 3.1862 	 36.2560 	 66.9334 	 2.0143 	 4.6300
  0.1200 	 1.1000 	 8.3060 	 13.2000 	 3.0294 	 39.2950 	 3.1082 	 37.6048 	 48.1265 	 1.6902 	 4.6300
  0.1200 	 1.1500 	 8.4035 	 13.1228 	 2.9272 	 39.7520 	 3.0386 	 38.8951 	 21.3947 	 0.8569 	 4.6300
  0.1200 	 1.0000 	 8.0764 	 13.4017 	 3.2691 	 36.9000 	 3.2793 	 34.8076 	 84.0528 	 2.0923 	 4.6400
  0.1200 	 1.0500 	 8.1941 	 13.3046 	 3.1464 	 38.2284 	 3.1915 	 36.2176 	 66.9272 	 2.0108 	 4.6400
  0.1200 	 1.1000 	 8.3012 	 13.2181 	 3.0345 	 39.2532 	 3.1133 	 37.5664 	 48.1073 	 1.6869 	 4.6400
  0.1200 	 1.1500 	 8.3989 	 13.1407 	 2.9321 	 39.7097 	 3.0435 	 38.8567 	 21.3308 	 0.8530 	 4.6400
  0.1200 	 1.0000 	 8.0710 	 13.4206 	 3.2746 	 36.8582 	 3.2849 	 34.7694 	 84.0552 	 2.0888 	 4.6500
  0.1200 	 1.0500 	 8.1890 	 13.3231 	 3.1517 	 38.1866 	 3.1968 	 36.1792 	 66.9210 	 2.0073 	 4.6500
  0.1200 	 1.1000 	 8.2963 	 13.2363 	 3.0396 	 39.2115 	 3.1184 	 37.5280 	 48.0881 	 1.6835 	 4.6500
  0.1200 	 1.1500 	 8.3943 	 13.1585 	 2.9369 	 39.6675 	 3.0484 	 38.8183 	 21.2668 	 0.8492 	 4.6500
  0.1200 	 1.0000 	 8.0657 	 13.4395 	 3.2801 	 36.8164 	 3.2904 	 34.7312 	 84.0576 	 2.0853 	 4.6600
  0.1200 	 1.0500 	 8.1840 	 13.3417 	 3.1570 	 38.1448 	 3.2021 	 36.1409 	 66.9148 	 2.0039 	 4.6600
  0.1200 	 1.1000 	 8.2915 	 13.2545 	 3.0447 	 39.1699 	 3.1235 	 37.4897 	 48.0689 	 1.6802 	 4.6600
  0.1200 	 1.1500 	 8.3896 	 13.1764 	 2.9418 	 39.6254 	 3.0533 	 38.7800 	 21.2028 	 0.8453 	 4.6600
  0.1200 	 1.0000 	 8.0604 	 13.4585 	 3.2857 	 36.7748 	 3.2959 	 34.6930 	 84.0600 	 2.0818 	 4.6700
  0.1200 	 1.0500 	 8.1789 	 13.3602 	 3.1623 	 38.1031 	 3.2074 	 36.1027 	 66.9086 	 2.0004 	 4.6700
  0.1200 	 1.1000 	 8.2866 	 13.2727 	 3.0497 	 39.1284 	 3.1286 	 37.4514 	 48.0498 	 1.6769 	 4.6700
  0.1200 	 1.1500 	 8.3850 	 13.1942 	 2.9467 	 39.5833 	 3.0583 	 38.7418 	 21.1388 	 0.8415 	 4.6700
  0.1200 	 1.0000 	 8.0551 	 13.4774 	 3.2912 	 36.7332 	 3.3015 	 34.6550 	 84.0623 	 2.0783 	 4.6800
  0.1200 	 1.0500 	 8.1738 	 13.3787 	 3.1676 	 38.0615 	 3.2127 	 36.0645 	 66.9024 	 1.9970 	 4.6800
  0.1200 	 1.1000 	 8.2818 	 13.2908 	 3.0548 	 39.0869 	 3.1337 	 37.4132 	 48.0307 	 1.6737 	 4.6800
  0.1200 	 1.1500 	 8.3804 	 13.2121 	 2.9515 	 39.5414 	 3.0632 	 38.7037 	 21.0748 	 0.8377 	 4.6800
  0.1200 	 1.0000 	 8.0497 	 13.4964 	 3.2968 	 36.6918 	 3.3070 	 34.6170 	 84.0647 	 2.0748 	 4.6900
  0.1200 	 1.0500 	 8.1687 	 13.3973 	 3.1729 	 38.0200 	 3.2180 	 36.0265 	 66.8962 	 1.9936 	 4.6900
  0.1200 	 1.1000 	 8.2769 	 13.3090 	 3.0599 	 39.0455 	 3.1388 	 37.3751 	 48.0117 	 1.6704 	 4.6900
  0.1200 	 1.1500 	 8.3757 	 13.2299 	 2.9564 	 39.4995 	 3.0681 	 38.6656 	 21.0108 	 0.8339 	 4.6900
  0.1200 	 1.0000 	 8.0444 	 13.5153 	 3.3023 	 36.6504 	 3.3126 	 34.5791 	 84.0670 	 2.0713 	 4.7000
  0.1200 	 1.0500 	 8.1637 	 13.4158 	 3.1781 	 37.9786 	 3.2233 	 35.9885 	 66.8901 	 1.9902 	 4.7000
  0.1200 	 1.1000 	 8.2721 	 13.3272 	 3.0649 	 39.0042 	 3.1439 	 37.3371 	 47.9927 	 1.6671 	 4.7000
  0.1200 	 1.1500 	 8.3711 	 13.2478 	 2.9612 	 39.4577 	 3.0730 	 38.6276 	 20.9467 	 0.8301 	 4.7000
  0.1200 	 1.0000 	 8.0391 	 13.5343 	 3.3079 	 36.6091 	 3.3181 	 34.5412 	 84.0694 	 2.0679 	 4.7100
  0.1200 	 1.0500 	 8.1586 	 13.4343 	 3.1834 	 37.9373 	 3.2286 	 35.9505 	 66.8839 	 1.9868 	 4.7100
  0.1200 	 1.1000 	 8.2672 	 13.3453 	 3.0700 	 38.9630 	 3.1490 	 37.2992 	 47.9737 	 1.6639 	 4.7100
  0.1200 	 1.1500 	 8.3664 	 13.2656 	 2.9661 	 39.4160 	 3.0779 	 38.5897 	 20.8826 	 0.8263 	 4.7100
  0.1200 	 1.0000 	 8.0337 	 13.5532 	 3.3134 	 36.5679 	 3.3236 	 34.5035 	 84.0717 	 2.0644 	 4.7200
  0.1200 	 1.0500 	 8.1535 	 13.4528 	 3.1887 	 37.8961 	 3.2339 	 35.9127 	 66.8778 	 1.9834 	 4.7200
  0.1200 	 1.1000 	 8.2624 	 13.3635 	 3.0751 	 38.9219 	 3.1541 	 37.2613 	 47.9548 	 1.6606 	 4.7200
  0.1200 	 1.1500 	 8.3618 	 13.2834 	 2.9710 	 39.3744 	 3.0828 	 38.5518 	 20.8185 	 0.8225 	 4.7200
  0.1200 	 1.0000 	 8.0284 	 13.5722 	 3.3189 	 36.5267 	 3.3292 	 34.4658 	 84.0740 	 2.0610 	 4.7300
  0.1200 	 1.0500 	 8.1484 	 13.4714 	 3.1940 	 37.8549 	 3.2392 	 35.8749 	 66.8717 	 1.9800 	 4.7300
  0.1200 	 1.1000 	 8.2576 	 13.3816 	 3.0801 	 38.8809 	 3.1592 	 37.2235 	 47.9360 	 1.6574 	 4.7300
  0.1200 	 1.1500 	 8.3572 	 13.3013 	 2.9758 	 39.3328 	 3.0877 	 38.5140 	 20.7543 	 0.8188 	 4.7300
  0.1200 	 1.0000 	 8.0231 	 13.5911 	 3.3245 	 36.4857 	 3.3347 	 34.4282 	 84.0763 	 2.0575 	 4.7400
  0.1200 	 1.0500 	 8.1434 	 13.4899 	 3.1993 	 37.8138 	 3.2445 	 35.8372 	 66.8656 	 1.9766 	 4.7400
  0.1200 	 1.1000 	 8.2527 	 13.3998 	 3.0852 	 38.8399 	 3.1643 	 37.1857 	 47.9171 	 1.6542 	 4.7400
  0.1200 	 1.1500 	 8.3525 	 13.3191 	 2.9807 	 39.2913 	 3.0926 	 38.4763 	 20.6901 	 0.8150 	 4.7400
  0.1200 	 1.0000 	 8.0178 	 13.6100 	 3.3300 	 36.4447 	 3.3402 	 34.3906 	 84.0786 	 2.0541 	 4.7500
  0.1200 	 1.0500 	 8.1383 	 13.5084 	 3.2046 	 37.7728 	 3.2499 	 35.7995 	 66.8595 	 1.9733 	 4.7500
  0.1200 	 1.1000 	 8.2479 	 13.4179 	 3.0902 	 38.7990 	 3.1694 	 37.1480 	 47.8984 	 1.6510 	 4.7500
  0.1200 	 1.1500 	 8.3479 	 13.3369 	 2.9855 	 39.2499 	 3.0975 	 38.4387 	 20.6259 	 0.8113 	 4.7500
  0.1200 	 1.0000 	 8.0124 	 13.6290 	 3.3355 	 36.4039 	 3.3458 	 34.3531 	 84.0809 	 2.0507 	 4.7600
  0.1200 	 1.0500 	 8.1332 	 13.5269 	 3.2099 	 37.7319 	 3.2552 	 35.7620 	 66.8534 	 1.9699 	 4.7600
  0.1200 	 1.1000 	 8.2430 	 13.4361 	 3.0953 	 38.7582 	 3.1745 	 37.1104 	 47.8796 	 1.6478 	 4.7600
  0.1200 	 1.1500 	 8.3433 	 13.3547 	 2.9904 	 39.2086 	 3.1025 	 38.4011 	 20.5617 	 0.8075 	 4.7600
  0.1200 	 1.0000 	 8.0071 	 13.6479 	 3.3411 	 36.3631 	 3.3513 	 34.3157 	 84.0832 	 2.0473 	 4.7700
  0.1200 	 1.0500 	 8.1281 	 13.5454 	 3.2152 	 37.6911 	 3.2605 	 35.7244 	 66.8474 	 1.9666 	 4.7700
  0.1200 	 1.1000 	 8.2382 	 13.4542 	 3.1004 	 38.7175 	 3.1796 	 37.0729 	 47.8609 	 1.6446 	 4.7700
  0.1200 	 1.1500 	 8.3386 	 13.3726 	 2.9952 	 39.1674 	 3.1074 	 38.3636 	 20.4974 	 0.8038 	 4.7700
  0.1200 	 1.0000 	 8.0018 	 13.6668 	 3.3466 	 36.3223 	 3.3568 	 34.2784 	 84.0855 	 2.0440 	 4.7800
  0.1200 	 1.0500 	 8.1231 	 13.5639 	 3.2205 	 37.6503 	 3.2658 	 35.6870 	 66.8413 	 1.9633 	 4.7800
  0.1200 	 1.1000 	 8.2333 	 13.4724 	 3.1054 	 38.6769 	 3.1847 	 37.0354 	 47.8423 	 1.6415 	 4.7800
  0.1200 	 1.1500 	 8.3340 	 13.3904 	 3.0001 	 39.1262 	 3.1123 	 38.3261 	 20.4331 	 0.8001 	 4.7800
  0.1200 	 1.0000 	 7.9964 	 13.6858 	 3.3521 	 36.2817 	 3.3624 	 34.2411 	 84.0878 	 2.0406 	 4.7900
  0.1200 	 1.0500 	 8.1180 	 13.5824 	 3.2257 	 37.6096 	 3.2711 	 35.6497 	 66.8353 	 1.9600 	 4.7900
  0.1200 	 1.1000 	 8.2285 	 13.4905 	 3.1105 	 38.6363 	 3.1898 	 36.9980 	 47.8236 	 1.6383 	 4.7900
  0.1200 	 1.1500 	 8.3294 	 13.4082 	 3.0050 	 39.0852 	 3.1172 	 38.2887 	 20.3688 	 0.7964 	 4.7900
  0.1200 	 1.0000 	 7.9911 	 13.7047 	 3.3577 	 36.2412 	 3.3679 	 34.2039 	 84.0900 	 2.0372 	 4.8000
  0.1200 	 1.0500 	 8.1129 	 13.6010 	 3.2310 	 37.5690 	 3.2764 	 35.6124 	 66.8293 	 1.9567 	 4.8000
  0.1200 	 1.1000 	 8.2236 	 13.5086 	 3.1156 	 38.5959 	 3.1949 	 36.9607 	 47.8051 	 1.6352 	 4.8000
  0.1200 	 1.1500 	 8.3247 	 13.4260 	 3.0098 	 39.0441 	 3.1221 	 38.2514 	 20.3045 	 0.7927 	 4.8000
  0.1200 	 1.0000 	 7.9858 	 13.7236 	 3.3632 	 36.2007 	 3.3734 	 34.1668 	 84.0923 	 2.0339 	 4.8100
  0.1200 	 1.0500 	 8.1078 	 13.6195 	 3.2363 	 37.5285 	 3.2817 	 35.5751 	 66.8233 	 1.9534 	 4.8100
  0.1200 	 1.1000 	 8.2188 	 13.5268 	 3.1206 	 38.5555 	 3.2000 	 36.9234 	 47.7865 	 1.6321 	 4.8100
  0.1200 	 1.1500 	 8.3201 	 13.4438 	 3.0147 	 39.0032 	 3.1270 	 38.2142 	 20.2401 	 0.7890 	 4.8100
  0.1200 	 1.0000 	 7.9804 	 13.7426 	 3.3687 	 36.1603 	 3.3790 	 34.1298 	 84.0945 	 2.0306 	 4.8200
  0.1200 	 1.0500 	 8.1028 	 13.6380 	 3.2416 	 37.4881 	 3.2870 	 35.5380 	 66.8173 	 1.9501 	 4.8200
  0.1200 	 1.1000 	 8.2140 	 13.5449 	 3.1257 	 38.5151 	 3.2051 	 36.8862 	 47.7681 	 1.6289 	 4.8200
  0.1200 	 1.1500 	 8.3155 	 13.4616 	 3.0195 	 38.9624 	 3.1319 	 38.1770 	 20.1756 	 0.7854 	 4.8200
  0.1200 	 1.0000 	 7.9751 	 13.7615 	 3.3743 	 36.1200 	 3.3845 	 34.0928 	 84.0967 	 2.0272 	 4.8300
  0.1200 	 1.0500 	 8.0977 	 13.6565 	 3.2469 	 37.4478 	 3.2923 	 35.5009 	 66.8113 	 1.9469 	 4.8300
  0.1200 	 1.1000 	 8.2091 	 13.5630 	 3.1307 	 38.4749 	 3.2102 	 36.8491 	 47.7496 	 1.6258 	 4.8300
  0.1200 	 1.1500 	 8.3108 	 13.4794 	 3.0244 	 38.9216 	 3.1368 	 38.1399 	 20.1112 	 0.7817 	 4.8300
  0.1200 	 1.0000 	 7.9698 	 13.7805 	 3.3798 	 36.0798 	 3.3900 	 34.0559 	 84.0990 	 2.0239 	 4.8400
  0.1200 	 1.0500 	 8.0926 	 13.6750 	 3.2522 	 37.4075 	 3.2976 	 35.4639 	 66.8054 	 1.9436 	 4.8400
  0.1200 	 1.1000 	 8.2043 	 13.5812 	 3.1358 	 38.4348 	 3.2152 	 36.8120 	 47.7312 	 1.6227 	 4.8400
  0.1200 	 1.1500 	 8.3062 	 13.4972 	 3.0292 	 38.8809 	 3.1417 	 38.1028 	 20.0467 	 0.7781 	 4.8400
  0.1200 	 1.0000 	 7.9645 	 13.7994 	 3.3853 	 36.0396 	 3.3956 	 34.0190 	 84.1012 	 2.0206 	 4.8500
  0.1200 	 1.0500 	 8.0875 	 13.6935 	 3.2574 	 37.3673 	 3.3028 	 35.4269 	 66.7994 	 1.9404 	 4.8500
  0.1200 	 1.1000 	 8.1994 	 13.5993 	 3.1408 	 38.3947 	 3.2203 	 36.7750 	 47.7128 	 1.6196 	 4.8500
  0.1200 	 1.1500 	 8.3016 	 13.5150 	 3.0341 	 38.8403 	 3.1466 	 38.0659 	 19.9821 	 0.7744 	 4.8500
  0.1200 	 1.0000 	 7.9591 	 13.8183 	 3.3909 	 35.9996 	 3.4011 	 33.9822 	 84.1034 	 2.0173 	 4.8600
  0.1200 	 1.0500 	 8.0825 	 13.7120 	 3.2627 	 37.3272 	 3.3081 	 35.3900 	 66.7935 	 1.9372 	 4.8600
  0.1200 	 1.1000 	 8.1946 	 13.6174 	 3.1459 	 38.3547 	 3.2254 	 36.7381 	 47.6945 	 1.6166 	 4.8600
  0.1200 	 1.1500 	 8.2969 	 13.5328 	 3.0389 	 38.7997 	 3.1515 	 38.0290 	 19.9175 	 0.7708 	 4.8600
  0.1200 	 1.0000 	 7.9538 	 13.8373 	 3.3964 	 35.9596 	 3.4066 	 33.9455 	 84.1056 	 2.0141 	 4.8700
  0.1200 	 1.0500 	 8.0774 	 13.7305 	 3.2680 	 37.2872 	 3.3134 	 35.3532 	 66.7876 	 1.9339 	 4.8700
  0.1200 	 1.1000 	 8.1897 	 13.6355 	 3.1510 	 38.3148 	 3.2305 	 36.7012 	 47.6762 	 1.6135 	 4.8700
  0.1200 	 1.1500 	 8.2923 	 13.5505 	 3.0438 	 38.7593 	 3.1564 	 37.9921 	 19.8529 	 0.7672 	 4.8700
  0.1200 	 1.0000 	 7.9485 	 13.8562 	 3.4019 	 35.9197 	 3.4121 	 33.9089 	 84.1078 	 2.0108 	 4.8800
  0.1200 	 1.0500 	 8.0723 	 13.7490 	 3.2733 	 37.2472 	 3.3187 	 35.3165 	 66.7817 	 1.9307 	 4.8800
  0.1200 	 1.1000 	 8.1849 	 13.6536 	 3.1560 	 38.2749 	 3.2356 	 36.6645 	 47.6580 	 1.6105 	 4.8800
  0.1200 	 1.1500 	 8.2877 	 13.5683 	 3.0486 	 38.7189 	 3.1613 	 37.9553 	 19.7883 	 0.7635 	 4.8800
  0.1200 	 1.0000 	 7.9431 	 13.8751 	 3.4074 	 35.8799 	 3.4177 	 33.8723 	 84.1100 	 2.0075 	 4.8900
  0.1200 	 1.0500 	 8.0672 	 13.7675 	 3.2786 	 37.2073 	 3.3240 	 35.2798 	 66.7758 	 1.9275 	 4.8900
  0.1200 	 1.1000 	 8.1800 	 13.6718 	 3.1611 	 38.2351 	 3.2407 	 36.6277 	 47.6398 	 1.6074 	 4.8900
  0.1200 	 1.1500 	 8.2830 	 13.5861 	 3.0535 	 38.6785 	 3.1662 	 37.9186 	 19.7236 	 0.7599 	 4.8900
  0.1200 	 1.0000 	 7.9378 	 13.8941 	 3.4130 	 35.8401 	 3.4232 	 33.8358 	 84.1122 	 2.0043 	 4.9000
  0.1200 	 1.0500 	 8.0622 	 13.7860 	 3.2838 	 37.1675 	 3.3293 	 35.2432 	 66.7699 	 1.9244 	 4.9000
  0.1200 	 1.1000 	 8.1752 	 13.6899 	 3.1661 	 38.1954 	 3.2458 	 36.5911 	 47.6216 	 1.6044 	 4.9000
  0.1200 	 1.1500 	 8.2784 	 13.6039 	 3.0583 	 38.6383 	 3.1711 	 37.8819 	 19.6588 	 0.7563 	 4.9000
  0.1200 	 1.0000 	 7.9325 	 13.9130 	 3.4185 	 35.8004 	 3.4287 	 33.7994 	 84.1143 	 2.0011 	 4.9100
  0.1200 	 1.0500 	 8.0571 	 13.8045 	 3.2891 	 37.1278 	 3.3346 	 35.2066 	 66.7641 	 1.9212 	 4.9100
  0.1200 	 1.1000 	 8.1704 	 13.7080 	 3.1712 	 38.1558 	 3.2508 	 36.5545 	 47.6035 	 1.6014 	 4.9100
  0.1200 	 1.1500 	 8.2738 	 13.6216 	 3.0632 	 38.5981 	 3.1760 	 37.8454 	 19.5940 	 0.7527 	 4.9100
  0.1200 	 1.0000 	 7.9272 	 13.9319 	 3.4240 	 35.7609 	 3.4342 	 33.7630 	 84.1165 	 1.9978 	 4.9200
  0.1200 	 1.0500 	 8.0520 	 13.8230 	 3.2944 	 37.0882 	 3.3399 	 35.1702 	 66.7582 	 1.9180 	 4.9200
  0.1200 	 1.1000 	 8.1655 	 13.7261 	 3.1762 	 38.1163 	 3.2559 	 36.5179 	 47.5854 	 1.5984 	 4.9200
  0.1200 	 1.1500 	 8.2691 	 13.6394 	 3.0680 	 38.5580 	 3.1808 	 37.8088 	 19.5292 	 0.7492 	 4.9200
  0.1200 	 1.0000 	 7.9218 	 13.9509 	 3.4296 	 35.7213 	 3.4398 	 33.7267 	 84.1186 	 1.9946 	 4.9300
  0.1200 	 1.0500 	 8.0469 	 13.8415 	 3.2997 	 37.0486 	 3.3452 	 35.1337 	 66.7524 	 1.9149 	 4.9300
  0.1200 	 1.1000 	 8.1607 	 13.7442 	 3.1813 	 38.0768 	 3.2610 	 36.4815 	 47.5673 	 1.5954 	 4.9300
  0.1200 	 1.1500 	 8.2645 	 13.6572 	 3.0729 	 38.5180 	 3.1857 	 37.7724 	 19.4643 	 0.7456 	 4.9300
  0.1200 	 1.0000 	 7.9165 	 13.9698 	 3.4351 	 35.6819 	 3.4453 	 33.6905 	 84.1208 	 1.9914 	 4.9400
  0.1200 	 1.0500 	 8.0419 	 13.8599 	 3.3050 	 37.0091 	 3.3505 	 35.0974 	 66.7465 	 1.9117 	 4.9400
  0.1200 	 1.1000 	 8.1558 	 13.7623 	 3.1863 	 38.0374 	 3.2661 	 36.4451 	 47.5493 	 1.5924 	 4.9400
  0.1200 	 1.1500 	 8.2599 	 13.6749 	 3.0777 	 38.4780 	 3.1906 	 37.7360 	 19.3994 	 0.7420 	 4.9400
  0.1200 	 1.0000 	 7.9112 	 13.9887 	 3.4406 	 35.6425 	 3.4508 	 33.6543 	 84.1229 	 1.9882 	 4.9500
  0.1200 	 1.0500 	 8.0368 	 13.8784 	 3.3102 	 36.9697 	 3.3558 	 35.0611 	 66.7407 	 1.9086 	 4.9500
  0.1200 	 1.1000 	 8.1510 	 13.7804 	 3.1914 	 37.9981 	 3.2712 	 36.4087 	 47.5314 	 1.5894 	 4.9500
  0.1200 	 1.1500 	 8.2552 	 13.6927 	 3.0825 	 38.4381 	 3.1955 	 37.6997 	 19.3344 	 0.7385 	 4.9500
  0.1200 	 1.0000 	 7.9058 	 14.0077 	 3.4461 	 35.6033 	 3.4563 	 33.6182 	 84.1250 	 1.9851 	 4.9600
  0.1200 	 1.0500 	 8.0317 	 13.8969 	 3.3155 	 36.9304 	 3.3611 	 35.0249 	 66.7349 	 1.9055 	 4.9600
  0.1200 	 1.1000 	 8.1461 	 13.7985 	 3.1964 	 37.9589 	 3.2762 	 36.3725 	 47.5134 	 1.5864 	 4.9600
  0.1200 	 1.1500 	 8.2506 	 13.7104 	 3.0874 	 38.3983 	 3.2004 	 37.6634 	 19.2694 	 0.7349 	 4.9600
  0.1200 	 1.0000 	 7.9005 	 14.0266 	 3.4516 	 35.5641 	 3.4619 	 33.5822 	 84.1272 	 1.9819 	 4.9700
  0.1200 	 1.0500 	 8.0266 	 13.9154 	 3.3208 	 36.8911 	 3.3664 	 34.9887 	 66.7292 	 1.9024 	 4.9700
  0.1200 	 1.1000 	 8.1413 	 13.8166 	 3.2015 	 37.9197 	 3.2813 	 36.3363 	 47.4955 	 1.5835 	 4.9700
  0.1200 	 1.1500 	 8.2460 	 13.7282 	 3.0922 	 38.3586 	 3.2053 	 37.6272 	 19.2043 	 0.7314 	 4.9700
  0.1200 	 1.0000 	 7.8952 	 14.0455 	 3.4572 	 35.5249 	 3.4674 	 33.5462 	 84.1293 	 1.9787 	 4.9800
  0.1200 	 1.0500 	 8.0216 	 13.9339 	 3.3260 	 36.8519 	 3.3716 	 34.9527 	 66.7234 	 1.8993 	 4.9800
  0.1200 	 1.1000 	 8.1364 	 13.8347 	 3.2065 	 37.8807 	 3.2864 	 36.3001 	 47.4777 	 1.5805 	 4.9800
  0.1200 	 1.1500 	 8.2413 	 13.7460 	 3.0971 	 38.3189 	 3.2102 	 37.5910 	 19.1391 	 0.7279 	 4.9800
  0.1200 	 1.0000 	 7.8899 	 14.0645 	 3.4627 	 35.4859 	 3.4729 	 33.5103 	 84.1314 	 1.9756 	 4.9900
  0.1200 	 1.0500 	 8.0165 	 13.9524 	 3.3313 	 36.8128 	 3.3769 	 34.9166 	 66.7176 	 1.8962 	 4.9900
  0.1200 	 1.1000 	 8.1316 	 13.8528 	 3.2116 	 37.8416 	 3.2915 	 36.2641 	 47.4599 	 1.5776 	 4.9900
  0.1200 	 1.1500 	 8.2367 	 13.7637 	 3.1019 	 38.2793 	 3.2151 	 37.5550 	 19.0740 	 0.7244 	 4.9900
  0.1200 	 1.0000 	 7.8845 	 14.0834 	 3.4682 	 35.4469 	 3.4784 	 33.4745 	 84.1335 	 1.9724 	 5.0000
  0.1200 	 1.0500 	 8.0114 	 13.9709 	 3.3366 	 36.7738 	 3.3822 	 34.8807 	 66.7119 	 1.8931 	 5.0000
  0.1200 	 1.1000 	 8.1268 	 13.8709 	 3.2166 	 37.8027 	 3.2966 	 36.2280 	 47.4421 	 1.5747 	 5.0000
  0.1200 	 1.1500 	 8.2321 	 13.7815 	 3.1068 	 38.2398 	 3.2200 	 37.5189 	 19.0087 	 0.7208 	 5.0000
